'Elapsed time','MLII','V1'
'hh:mm:ss.mmm','mV','mV'
'0:00.000',-0.780,-0.735
'0:00.003',-0.780,-0.735
'0:00.006',-0.780,-0.735
'0:00.008',-0.780,-0.735
'0:00.011',-0.780,-0.735
'0:00.014',-0.780,-0.735
'0:00.017',-0.780,-0.735
'0:00.019',-0.780,-0.690
'0:00.022',-0.780,-0.685
'0:00.025',-0.775,-0.715
'0:00.028',-0.755,-0.740
'0:00.031',-0.755,-0.735
'0:00.033',-0.745,-0.675
'0:00.036',-0.745,-0.660
'0:00.039',-0.765,-0.685
'0:00.042',-0.760,-0.750
'0:00.044',-0.745,-0.785
'0:00.047',-0.745,-0.770
'0:00.050',-0.760,-0.705
'0:00.053',-0.760,-0.635
'0:00.056',-0.750,-0.650
'0:00.058',-0.735,-0.705
'0:00.061',-0.705,-0.745
'0:00.064',-0.695,-0.780
'0:00.067',-0.690,-0.735
'0:00.069',-0.705,-0.695
'0:00.072',-0.725,-0.680
'0:00.075',-0.720,-0.710
'0:00.078',-0.700,-0.765
'0:00.081',-0.665,-0.770
'0:00.083',-0.645,-0.735
'0:00.086',-0.610,-0.675
'0:00.089',-0.595,-0.640
'0:00.092',-0.580,-0.670
'0:00.094',-0.550,-0.710
'0:00.097',-0.520,-0.720
'0:00.100',-0.535,-0.665
'0:00.103',-0.540,-0.610
'0:00.106',-0.550,-0.620
'0:00.108',-0.545,-0.665
'0:00.111',-0.535,-0.690
'0:00.114',-0.540,-0.685
'0:00.117',-0.545,-0.635
'0:00.119',-0.560,-0.590
'0:00.122',-0.575,-0.620
'0:00.125',-0.585,-0.665
'0:00.128',-0.580,-0.680
'0:00.131',-0.580,-0.660
'0:00.133',-0.590,-0.595
'0:00.136',-0.605,-0.580
'0:00.139',-0.605,-0.610
'0:00.142',-0.605,-0.695
'0:00.144',-0.610,-0.745
'0:00.147',-0.610,-0.740
'0:00.150',-0.645,-0.695
'0:00.153',-0.685,-0.660
'0:00.156',-0.690,-0.680
'0:00.158',-0.715,-0.700
'0:00.161',-0.700,-0.755
'0:00.164',-0.715,-0.760
'0:00.167',-0.735,-0.705
'0:00.169',-0.755,-0.690
'0:00.172',-0.790,-0.675
'0:00.175',-0.775,-0.745
'0:00.178',-0.795,-0.790
'0:00.181',-0.785,-0.770
'0:00.183',-0.795,-0.715
'0:00.186',-0.810,-0.660
'0:00.189',-0.780,-0.645
'0:00.192',-0.765,-0.700
'0:00.194',-0.755,-0.745
'0:00.197',-0.740,-0.760
'0:00.200',-0.740,-0.720
'0:00.203',-0.785,-0.690
'0:00.206',-0.825,-0.680
'0:00.208',-0.840,-0.740
'0:00.211',-0.890,-0.785
'0:00.214',-0.925,-0.800
'0:00.217',-0.960,-0.765
'0:00.219',-0.965,-0.705
'0:00.222',-0.950,-0.665
'0:00.225',-0.870,-0.660
'0:00.228',-0.730,-0.625
'0:00.231',-0.555,-0.555
'0:00.233',-0.345,-0.445
'0:00.236',-0.140,-0.375
'0:00.239',0.050,-0.360
'0:00.242',0.235,-0.405
'0:00.244',0.410,-0.420
'0:00.247',0.570,-0.420
'0:00.250',0.705,-0.405
'0:00.253',0.800,-0.425
'0:00.256',0.845,-0.540
'0:00.258',0.855,-0.695
'0:00.261',0.845,-0.860
'0:00.264',0.805,-0.925
'0:00.267',0.730,-0.890
'0:00.269',0.650,-0.815
'0:00.272',0.530,-0.735
'0:00.275',0.340,-0.665
'0:00.278',0.065,-0.595
'0:00.281',-0.260,-0.585
'0:00.283',-0.555,-0.600
'0:00.286',-0.745,-0.680
'0:00.289',-0.820,-0.750
'0:00.292',-0.815,-0.820
'0:00.294',-0.755,-0.815
'0:00.297',-0.700,-0.740
'0:00.300',-0.670,-0.675
'0:00.303',-0.670,-0.700
'0:00.306',-0.695,-0.730
'0:00.308',-0.740,-0.745
'0:00.311',-0.770,-0.765
'0:00.314',-0.840,-0.695
'0:00.317',-0.865,-0.660
'0:00.319',-0.860,-0.690
'0:00.322',-0.845,-0.710
'0:00.325',-0.820,-0.705
'0:00.328',-0.810,-0.650
'0:00.331',-0.830,-0.625
'0:00.333',-0.855,-0.615
'0:00.336',-0.855,-0.680
'0:00.339',-0.840,-0.720
'0:00.342',-0.845,-0.725
'0:00.344',-0.830,-0.680
'0:00.347',-0.840,-0.625
'0:00.350',-0.850,-0.620
'0:00.353',-0.840,-0.655
'0:00.356',-0.815,-0.690
'0:00.358',-0.800,-0.690
'0:00.361',-0.810,-0.625
'0:00.364',-0.820,-0.595
'0:00.367',-0.850,-0.605
'0:00.369',-0.860,-0.660
'0:00.372',-0.840,-0.715
'0:00.375',-0.830,-0.710
'0:00.378',-0.835,-0.655
'0:00.381',-0.840,-0.605
'0:00.383',-0.845,-0.605
'0:00.386',-0.835,-0.620
'0:00.389',-0.805,-0.670
'0:00.392',-0.800,-0.635
'0:00.394',-0.800,-0.615
'0:00.397',-0.805,-0.550
'0:00.400',-0.820,-0.550
'0:00.403',-0.830,-0.615
'0:00.406',-0.825,-0.660
'0:00.408',-0.810,-0.670
'0:00.411',-0.840,-0.630
'0:00.414',-0.865,-0.570
'0:00.417',-0.865,-0.550
'0:00.419',-0.855,-0.575
'0:00.422',-0.820,-0.615
'0:00.425',-0.800,-0.605
'0:00.428',-0.770,-0.535
'0:00.431',-0.785,-0.500
'0:00.433',-0.780,-0.495
'0:00.436',-0.795,-0.525
'0:00.439',-0.790,-0.590
'0:00.442',-0.790,-0.595
'0:00.444',-0.800,-0.550
'0:00.447',-0.820,-0.520
'0:00.450',-0.820,-0.505
'0:00.453',-0.800,-0.545
'0:00.456',-0.765,-0.575
'0:00.458',-0.715,-0.565
'0:00.461',-0.730,-0.485
'0:00.464',-0.740,-0.450
'0:00.467',-0.755,-0.465
'0:00.469',-0.765,-0.520
'0:00.472',-0.770,-0.605
'0:00.475',-0.755,-0.625
'0:00.478',-0.765,-0.575
'0:00.481',-0.765,-0.535
'0:00.483',-0.760,-0.520
'0:00.486',-0.760,-0.550
'0:00.489',-0.740,-0.595
'0:00.492',-0.720,-0.605
'0:00.494',-0.715,-0.575
'0:00.497',-0.725,-0.535
'0:00.500',-0.725,-0.545
'0:00.503',-0.720,-0.600
'0:00.506',-0.720,-0.660
'0:00.508',-0.715,-0.650
'0:00.511',-0.735,-0.630
'0:00.514',-0.740,-0.600
'0:00.517',-0.755,-0.630
'0:00.519',-0.735,-0.665
'0:00.522',-0.725,-0.705
'0:00.525',-0.720,-0.670
'0:00.528',-0.720,-0.620
'0:00.531',-0.755,-0.595
'0:00.533',-0.770,-0.660
'0:00.536',-0.770,-0.725
'0:00.539',-0.740,-0.750
'0:00.542',-0.740,-0.720
'0:00.544',-0.735,-0.670
'0:00.547',-0.755,-0.665
'0:00.550',-0.760,-0.685
'0:00.553',-0.760,-0.745
'0:00.556',-0.765,-0.750
'0:00.558',-0.745,-0.730
'0:00.561',-0.730,-0.655
'0:00.564',-0.750,-0.650
'0:00.567',-0.740,-0.690
'0:00.569',-0.740,-0.750
'0:00.572',-0.745,-0.775
'0:00.575',-0.720,-0.740
'0:00.578',-0.760,-0.705
'0:00.581',-0.785,-0.695
'0:00.583',-0.780,-0.720
'0:00.586',-0.785,-0.770
'0:00.589',-0.755,-0.770
'0:00.592',-0.750,-0.725
'0:00.594',-0.755,-0.655
'0:00.597',-0.770,-0.655
'0:00.600',-0.780,-0.695
'0:00.603',-0.770,-0.780
'0:00.606',-0.765,-0.815
'0:00.608',-0.775,-0.780
'0:00.611',-0.795,-0.730
'0:00.614',-0.805,-0.690
'0:00.617',-0.830,-0.725
'0:00.619',-0.820,-0.760
'0:00.622',-0.800,-0.780
'0:00.625',-0.785,-0.735
'0:00.628',-0.785,-0.700
'0:00.631',-0.800,-0.670
'0:00.633',-0.805,-0.715
'0:00.636',-0.810,-0.765
'0:00.639',-0.825,-0.800
'0:00.642',-0.825,-0.760
'0:00.644',-0.850,-0.720
'0:00.647',-0.870,-0.720
'0:00.650',-0.880,-0.760
'0:00.653',-0.860,-0.795
'0:00.656',-0.850,-0.800
'0:00.658',-0.840,-0.730
'0:00.661',-0.835,-0.680
'0:00.664',-0.855,-0.675
'0:00.667',-0.855,-0.730
'0:00.669',-0.850,-0.775
'0:00.672',-0.840,-0.795
'0:00.675',-0.845,-0.770
'0:00.678',-0.855,-0.725
'0:00.681',-0.865,-0.700
'0:00.683',-0.865,-0.750
'0:00.686',-0.840,-0.800
'0:00.689',-0.825,-0.785
'0:00.692',-0.820,-0.740
'0:00.694',-0.810,-0.695
'0:00.697',-0.820,-0.690
'0:00.700',-0.810,-0.755
'0:00.703',-0.775,-0.800
'0:00.706',-0.790,-0.785
'0:00.708',-0.785,-0.750
'0:00.711',-0.800,-0.715
'0:00.714',-0.815,-0.730
'0:00.717',-0.790,-0.780
'0:00.719',-0.755,-0.805
'0:00.722',-0.720,-0.785
'0:00.725',-0.710,-0.720
'0:00.728',-0.685,-0.690
'0:00.731',-0.690,-0.685
'0:00.733',-0.670,-0.750
'0:00.736',-0.655,-0.800
'0:00.739',-0.625,-0.775
'0:00.742',-0.610,-0.720
'0:00.744',-0.630,-0.675
'0:00.747',-0.630,-0.680
'0:00.750',-0.635,-0.710
'0:00.753',-0.630,-0.740
'0:00.756',-0.610,-0.730
'0:00.758',-0.605,-0.675
'0:00.761',-0.615,-0.605
'0:00.764',-0.625,-0.615
'0:00.767',-0.625,-0.680
'0:00.769',-0.640,-0.725
'0:00.772',-0.630,-0.745
'0:00.775',-0.655,-0.715
'0:00.778',-0.665,-0.665
'0:00.781',-0.690,-0.655
'0:00.783',-0.685,-0.695
'0:00.786',-0.685,-0.745
'0:00.789',-0.675,-0.760
'0:00.792',-0.680,-0.730
'0:00.794',-0.705,-0.665
'0:00.797',-0.740,-0.665
'0:00.800',-0.755,-0.725
'0:00.803',-0.765,-0.805
'0:00.806',-0.790,-0.845
'0:00.808',-0.800,-0.815
'0:00.811',-0.830,-0.775
'0:00.814',-0.850,-0.745
'0:00.817',-0.855,-0.760
'0:00.819',-0.845,-0.790
'0:00.822',-0.840,-0.790
'0:00.825',-0.840,-0.770
'0:00.828',-0.855,-0.710
'0:00.831',-0.855,-0.715
'0:00.833',-0.865,-0.775
'0:00.836',-0.855,-0.825
'0:00.839',-0.855,-0.840
'0:00.842',-0.850,-0.795
'0:00.844',-0.875,-0.760
'0:00.847',-0.880,-0.745
'0:00.850',-0.900,-0.785
'0:00.853',-0.910,-0.840
'0:00.856',-0.925,-0.830
'0:00.858',-0.975,-0.785
'0:00.861',-1.035,-0.735
'0:00.864',-1.070,-0.740
'0:00.867',-1.070,-0.785
'0:00.869',-1.020,-0.805
'0:00.872',-0.915,-0.785
'0:00.875',-0.805,-0.700
'0:00.878',-0.675,-0.585
'0:00.881',-0.490,-0.520
'0:00.883',-0.280,-0.515
'0:00.886',-0.070,-0.490
'0:00.889',0.135,-0.450
'0:00.892',0.315,-0.375
'0:00.894',0.480,-0.330
'0:00.897',0.615,-0.360
'0:00.900',0.715,-0.500
'0:00.903',0.790,-0.630
'0:00.906',0.795,-0.765
'0:00.908',0.770,-0.835
'0:00.911',0.710,-0.880
'0:00.914',0.635,-0.885
'0:00.917',0.550,-0.835
'0:00.919',0.425,-0.745
'0:00.922',0.190,-0.610
'0:00.925',-0.135,-0.535
'0:00.928',-0.450,-0.540
'0:00.931',-0.690,-0.685
'0:00.933',-0.830,-0.830
'0:00.936',-0.870,-0.915
'0:00.939',-0.870,-0.910
'0:00.942',-0.840,-0.845
'0:00.944',-0.800,-0.800
'0:00.947',-0.790,-0.800
'0:00.950',-0.775,-0.830
'0:00.953',-0.780,-0.835
'0:00.956',-0.820,-0.795
'0:00.958',-0.865,-0.755
'0:00.961',-0.890,-0.715
'0:00.964',-0.915,-0.750
'0:00.967',-0.920,-0.810
'0:00.969',-0.930,-0.865
'0:00.972',-0.915,-0.840
'0:00.975',-0.935,-0.765
'0:00.978',-0.950,-0.730
'0:00.981',-0.970,-0.740
'0:00.983',-0.955,-0.785
'0:00.986',-0.935,-0.795
'0:00.989',-0.920,-0.780
'0:00.992',-0.920,-0.700
'0:00.994',-0.925,-0.670
'0:00.997',-0.905,-0.685
'0:01.000',-0.905,-0.750
'0:01.003',-0.890,-0.780
'0:01.006',-0.905,-0.785
'0:01.008',-0.915,-0.750
'0:01.011',-0.930,-0.700
'0:01.014',-0.975,-0.690
'0:01.017',-0.945,-0.720
'0:01.019',-0.935,-0.775
'0:01.022',-0.905,-0.775
'0:01.025',-0.905,-0.710
'0:01.028',-0.915,-0.645
'0:01.031',-0.915,-0.630
'0:01.033',-0.925,-0.675
'0:01.036',-0.915,-0.730
'0:01.039',-0.910,-0.755
'0:01.042',-0.920,-0.710
'0:01.044',-0.935,-0.665
'0:01.047',-0.925,-0.645
'0:01.050',-0.930,-0.665
'0:01.053',-0.920,-0.730
'0:01.056',-0.885,-0.715
'0:01.058',-0.880,-0.680
'0:01.061',-0.905,-0.600
'0:01.064',-0.900,-0.585
'0:01.067',-0.905,-0.625
'0:01.069',-0.890,-0.670
'0:01.072',-0.870,-0.725
'0:01.075',-0.870,-0.675
'0:01.078',-0.895,-0.605
'0:01.081',-0.915,-0.570
'0:01.083',-0.915,-0.615
'0:01.086',-0.895,-0.655
'0:01.089',-0.875,-0.670
'0:01.092',-0.865,-0.615
'0:01.094',-0.850,-0.540
'0:01.097',-0.850,-0.530
'0:01.100',-0.885,-0.555
'0:01.103',-0.850,-0.625
'0:01.106',-0.835,-0.660
'0:01.108',-0.830,-0.650
'0:01.111',-0.840,-0.595
'0:01.114',-0.860,-0.565
'0:01.117',-0.875,-0.595
'0:01.119',-0.850,-0.630
'0:01.122',-0.840,-0.655
'0:01.125',-0.820,-0.605
'0:01.128',-0.810,-0.540
'0:01.131',-0.825,-0.525
'0:01.133',-0.825,-0.590
'0:01.136',-0.810,-0.665
'0:01.139',-0.815,-0.695
'0:01.142',-0.790,-0.655
'0:01.144',-0.820,-0.625
'0:01.147',-0.835,-0.595
'0:01.150',-0.835,-0.630
'0:01.153',-0.810,-0.695
'0:01.156',-0.790,-0.720
'0:01.158',-0.770,-0.710
'0:01.161',-0.775,-0.660
'0:01.164',-0.775,-0.615
'0:01.167',-0.785,-0.610
'0:01.169',-0.800,-0.680
'0:01.172',-0.795,-0.755
'0:01.175',-0.790,-0.800
'0:01.178',-0.790,-0.785
'0:01.181',-0.815,-0.725
'0:01.183',-0.820,-0.700
'0:01.186',-0.825,-0.725
'0:01.189',-0.815,-0.775
'0:01.192',-0.785,-0.795
'0:01.194',-0.790,-0.770
'0:01.197',-0.790,-0.730
'0:01.200',-0.800,-0.710
'0:01.203',-0.815,-0.755
'0:01.206',-0.815,-0.815
'0:01.208',-0.815,-0.860
'0:01.211',-0.820,-0.845
'0:01.214',-0.840,-0.790
'0:01.217',-0.850,-0.740
'0:01.219',-0.855,-0.755
'0:01.222',-0.855,-0.780
'0:01.225',-0.840,-0.835
'0:01.228',-0.820,-0.825
'0:01.231',-0.815,-0.765
'0:01.233',-0.830,-0.725
'0:01.236',-0.840,-0.740
'0:01.239',-0.845,-0.785
'0:01.242',-0.850,-0.860
'0:01.244',-0.840,-0.850
'0:01.247',-0.855,-0.810
'0:01.250',-0.870,-0.775
'0:01.253',-0.875,-0.755
'0:01.256',-0.850,-0.810
'0:01.258',-0.835,-0.835
'0:01.261',-0.830,-0.835
'0:01.264',-0.825,-0.795
'0:01.267',-0.860,-0.760
'0:01.269',-0.890,-0.750
'0:01.272',-0.875,-0.810
'0:01.275',-0.875,-0.885
'0:01.278',-0.885,-0.885
'0:01.281',-0.875,-0.860
'0:01.283',-0.895,-0.795
'0:01.286',-0.900,-0.755
'0:01.289',-0.915,-0.785
'0:01.292',-0.915,-0.840
'0:01.294',-0.880,-0.870
'0:01.297',-0.895,-0.845
'0:01.300',-0.920,-0.795
'0:01.303',-0.925,-0.785
'0:01.306',-0.940,-0.825
'0:01.308',-0.940,-0.880
'0:01.311',-0.945,-0.885
'0:01.314',-0.950,-0.850
'0:01.317',-0.960,-0.790
'0:01.319',-0.955,-0.795
'0:01.322',-0.940,-0.825
'0:01.325',-0.930,-0.845
'0:01.328',-0.920,-0.825
'0:01.331',-0.920,-0.785
'0:01.333',-0.930,-0.750
'0:01.336',-0.930,-0.775
'0:01.339',-0.925,-0.825
'0:01.342',-0.920,-0.875
'0:01.344',-0.920,-0.860
'0:01.347',-0.925,-0.825
'0:01.350',-0.925,-0.795
'0:01.353',-0.905,-0.805
'0:01.356',-0.870,-0.835
'0:01.358',-0.845,-0.850
'0:01.361',-0.825,-0.815
'0:01.364',-0.835,-0.765
'0:01.367',-0.860,-0.750
'0:01.369',-0.850,-0.775
'0:01.372',-0.835,-0.840
'0:01.375',-0.795,-0.885
'0:01.378',-0.770,-0.855
'0:01.381',-0.760,-0.800
'0:01.383',-0.750,-0.755
'0:01.386',-0.750,-0.755
'0:01.389',-0.720,-0.785
'0:01.392',-0.680,-0.820
'0:01.394',-0.665,-0.785
'0:01.397',-0.660,-0.730
'0:01.400',-0.670,-0.685
'0:01.403',-0.700,-0.675
'0:01.406',-0.690,-0.750
'0:01.408',-0.690,-0.815
'0:01.411',-0.695,-0.810
'0:01.414',-0.700,-0.760
'0:01.417',-0.735,-0.720
'0:01.419',-0.745,-0.710
'0:01.422',-0.735,-0.740
'0:01.425',-0.720,-0.780
'0:01.428',-0.720,-0.770
'0:01.431',-0.710,-0.745
'0:01.433',-0.715,-0.705
'0:01.436',-0.740,-0.720
'0:01.439',-0.750,-0.770
'0:01.442',-0.765,-0.830
'0:01.444',-0.800,-0.860
'0:01.447',-0.840,-0.820
'0:01.450',-0.875,-0.785
'0:01.453',-0.885,-0.785
'0:01.456',-0.900,-0.825
'0:01.458',-0.880,-0.865
'0:01.461',-0.875,-0.855
'0:01.464',-0.885,-0.805
'0:01.467',-0.890,-0.760
'0:01.469',-0.905,-0.770
'0:01.472',-0.925,-0.820
'0:01.475',-0.925,-0.885
'0:01.478',-0.935,-0.900
'0:01.481',-0.940,-0.855
'0:01.483',-0.945,-0.790
'0:01.486',-0.970,-0.780
'0:01.489',-0.955,-0.800
'0:01.492',-0.950,-0.865
'0:01.494',-0.905,-0.865
'0:01.497',-0.920,-0.835
'0:01.500',-0.930,-0.795
'0:01.503',-0.965,-0.765
'0:01.506',-1.000,-0.825
'0:01.508',-1.035,-0.885
'0:01.511',-1.070,-0.940
'0:01.514',-1.125,-0.910
'0:01.517',-1.155,-0.865
'0:01.519',-1.160,-0.770
'0:01.522',-1.100,-0.770
'0:01.525',-0.980,-0.770
'0:01.528',-0.820,-0.740
'0:01.531',-0.630,-0.660
'0:01.533',-0.435,-0.560
'0:01.536',-0.250,-0.480
'0:01.539',-0.060,-0.475
'0:01.542',0.085,-0.485
'0:01.544',0.265,-0.530
'0:01.547',0.420,-0.520
'0:01.550',0.545,-0.510
'0:01.553',0.625,-0.525
'0:01.556',0.675,-0.605
'0:01.558',0.710,-0.780
'0:01.561',0.715,-0.915
'0:01.564',0.680,-0.980
'0:01.567',0.635,-0.920
'0:01.569',0.555,-0.820
'0:01.572',0.450,-0.715
'0:01.575',0.245,-0.670
'0:01.578',0.015,-0.685
'0:01.581',-0.275,-0.730
'0:01.583',-0.560,-0.745
'0:01.586',-0.760,-0.770
'0:01.589',-0.895,-0.820
'0:01.592',-0.945,-0.880
'0:01.594',-0.925,-0.935
'0:01.597',-0.855,-0.960
'0:01.600',-0.815,-0.910
'0:01.603',-0.815,-0.825
'0:01.606',-0.850,-0.785
'0:01.608',-0.925,-0.810
'0:01.611',-0.945,-0.880
'0:01.614',-0.965,-0.905
'0:01.617',-0.995,-0.900
'0:01.619',-1.015,-0.850
'0:01.622',-1.020,-0.795
'0:01.625',-1.030,-0.780
'0:01.628',-1.015,-0.810
'0:01.631',-0.985,-0.860
'0:01.633',-0.990,-0.855
'0:01.636',-0.990,-0.810
'0:01.639',-1.020,-0.755
'0:01.642',-1.035,-0.765
'0:01.644',-1.030,-0.810
'0:01.647',-1.030,-0.850
'0:01.650',-1.000,-0.840
'0:01.653',-0.995,-0.790
'0:01.656',-1.000,-0.725
'0:01.658',-1.005,-0.715
'0:01.661',-0.995,-0.765
'0:01.664',-0.970,-0.790
'0:01.667',-0.950,-0.810
'0:01.669',-0.960,-0.765
'0:01.672',-1.005,-0.730
'0:01.675',-1.015,-0.735
'0:01.678',-1.020,-0.765
'0:01.681',-1.015,-0.840
'0:01.683',-1.010,-0.830
'0:01.686',-0.995,-0.770
'0:01.689',-0.990,-0.715
'0:01.692',-0.990,-0.675
'0:01.694',-1.000,-0.705
'0:01.697',-0.980,-0.745
'0:01.700',-0.970,-0.760
'0:01.703',-0.945,-0.725
'0:01.706',-0.965,-0.675
'0:01.708',-0.985,-0.670
'0:01.711',-0.980,-0.705
'0:01.714',-0.980,-0.740
'0:01.717',-0.975,-0.735
'0:01.719',-0.975,-0.680
'0:01.722',-0.960,-0.645
'0:01.725',-0.960,-0.615
'0:01.728',-0.940,-0.660
'0:01.731',-0.935,-0.675
'0:01.733',-0.940,-0.660
'0:01.736',-0.930,-0.630
'0:01.739',-0.970,-0.605
'0:01.742',-0.965,-0.650
'0:01.744',-0.970,-0.695
'0:01.747',-0.955,-0.695
'0:01.750',-0.945,-0.660
'0:01.753',-0.935,-0.585
'0:01.756',-0.940,-0.585
'0:01.758',-0.930,-0.620
'0:01.761',-0.900,-0.645
'0:01.764',-0.880,-0.690
'0:01.767',-0.880,-0.645
'0:01.769',-0.900,-0.595
'0:01.772',-0.905,-0.580
'0:01.775',-0.935,-0.585
'0:01.778',-0.940,-0.675
'0:01.781',-0.935,-0.735
'0:01.783',-0.940,-0.720
'0:01.786',-0.925,-0.660
'0:01.789',-0.890,-0.605
'0:01.792',-0.880,-0.585
'0:01.794',-0.865,-0.635
'0:01.797',-0.860,-0.695
'0:01.800',-0.855,-0.715
'0:01.803',-0.870,-0.685
'0:01.806',-0.895,-0.665
'0:01.808',-0.890,-0.665
'0:01.811',-0.895,-0.745
'0:01.814',-0.890,-0.800
'0:01.817',-0.885,-0.800
'0:01.819',-0.880,-0.740
'0:01.822',-0.885,-0.680
'0:01.825',-0.895,-0.680
'0:01.828',-0.900,-0.710
'0:01.831',-0.870,-0.785
'0:01.833',-0.850,-0.820
'0:01.836',-0.850,-0.810
'0:01.839',-0.865,-0.765
'0:01.842',-0.890,-0.720
'0:01.844',-0.875,-0.745
'0:01.847',-0.890,-0.805
'0:01.850',-0.885,-0.855
'0:01.853',-0.900,-0.835
'0:01.856',-0.870,-0.785
'0:01.858',-0.885,-0.740
'0:01.861',-0.880,-0.735
'0:01.864',-0.895,-0.775
'0:01.867',-0.880,-0.835
'0:01.869',-0.880,-0.825
'0:01.872',-0.905,-0.775
'0:01.875',-0.930,-0.775
'0:01.878',-0.935,-0.775
'0:01.881',-0.925,-0.825
'0:01.883',-0.920,-0.865
'0:01.886',-0.900,-0.865
'0:01.889',-0.895,-0.785
'0:01.892',-0.900,-0.730
'0:01.894',-0.910,-0.695
'0:01.897',-0.910,-0.755
'0:01.900',-0.915,-0.825
'0:01.903',-0.910,-0.860
'0:01.906',-0.925,-0.865
'0:01.908',-0.950,-0.805
'0:01.911',-0.955,-0.785
'0:01.914',-0.965,-0.810
'0:01.917',-0.970,-0.850
'0:01.919',-0.960,-0.860
'0:01.922',-0.940,-0.820
'0:01.925',-0.935,-0.765
'0:01.928',-0.935,-0.740
'0:01.931',-0.945,-0.775
'0:01.933',-0.940,-0.820
'0:01.936',-0.945,-0.835
'0:01.939',-0.950,-0.800
'0:01.942',-0.970,-0.765
'0:01.944',-0.995,-0.785
'0:01.947',-1.000,-0.845
'0:01.950',-1.010,-0.885
'0:01.953',-1.010,-0.865
'0:01.956',-1.010,-0.795
'0:01.958',-1.025,-0.740
'0:01.961',-1.000,-0.735
'0:01.964',-1.000,-0.800
'0:01.967',-0.995,-0.855
'0:01.969',-0.980,-0.865
'0:01.972',-0.990,-0.835
'0:01.975',-1.000,-0.780
'0:01.978',-1.020,-0.760
'0:01.981',-1.015,-0.785
'0:01.983',-1.025,-0.830
'0:01.986',-1.005,-0.870
'0:01.989',-0.985,-0.855
'0:01.992',-0.985,-0.795
'0:01.994',-0.985,-0.755
'0:01.997',-0.970,-0.755
'0:02.000',-0.975,-0.800
'0:02.003',-0.950,-0.845
'0:02.006',-0.955,-0.830
'0:02.008',-0.950,-0.795
'0:02.011',-0.955,-0.765
'0:02.014',-0.955,-0.780
'0:02.017',-0.950,-0.835
'0:02.019',-0.930,-0.850
'0:02.022',-0.905,-0.825
'0:02.025',-0.895,-0.745
'0:02.028',-0.875,-0.695
'0:02.031',-0.860,-0.735
'0:02.033',-0.845,-0.805
'0:02.036',-0.810,-0.825
'0:02.039',-0.810,-0.825
'0:02.042',-0.800,-0.785
'0:02.044',-0.805,-0.725
'0:02.047',-0.795,-0.705
'0:02.050',-0.790,-0.755
'0:02.053',-0.755,-0.790
'0:02.056',-0.750,-0.775
'0:02.058',-0.740,-0.735
'0:02.061',-0.745,-0.670
'0:02.064',-0.770,-0.635
'0:02.067',-0.765,-0.660
'0:02.069',-0.770,-0.745
'0:02.072',-0.765,-0.765
'0:02.075',-0.760,-0.775
'0:02.078',-0.790,-0.715
'0:02.081',-0.810,-0.665
'0:02.083',-0.820,-0.675
'0:02.086',-0.805,-0.730
'0:02.089',-0.795,-0.780
'0:02.092',-0.785,-0.765
'0:02.094',-0.785,-0.730
'0:02.097',-0.795,-0.670
'0:02.100',-0.835,-0.630
'0:02.103',-0.860,-0.720
'0:02.106',-0.880,-0.790
'0:02.108',-0.900,-0.835
'0:02.111',-0.910,-0.855
'0:02.114',-0.915,-0.775
'0:02.117',-0.940,-0.735
'0:02.119',-0.975,-0.740
'0:02.122',-0.955,-0.745
'0:02.125',-0.955,-0.815
'0:02.128',-0.940,-0.770
'0:02.131',-0.925,-0.735
'0:02.133',-0.955,-0.715
'0:02.136',-0.975,-0.750
'0:02.139',-0.980,-0.795
'0:02.142',-1.010,-0.825
'0:02.144',-1.005,-0.810
'0:02.147',-1.000,-0.750
'0:02.150',-1.005,-0.735
'0:02.153',-0.990,-0.755
'0:02.156',-0.990,-0.790
'0:02.158',-0.990,-0.810
'0:02.161',-1.010,-0.765
'0:02.164',-1.045,-0.715
'0:02.167',-1.100,-0.725
'0:02.169',-1.175,-0.790
'0:02.172',-1.200,-0.855
'0:02.175',-1.200,-0.865
'0:02.178',-1.170,-0.840
'0:02.181',-1.110,-0.735
'0:02.183',-1.010,-0.635
'0:02.186',-0.865,-0.580
'0:02.189',-0.680,-0.575
'0:02.192',-0.465,-0.550
'0:02.194',-0.265,-0.475
'0:02.197',-0.090,-0.370
'0:02.200',0.065,-0.305
'0:02.203',0.210,-0.265
'0:02.206',0.350,-0.325
'0:02.208',0.500,-0.405
'0:02.211',0.605,-0.485
'0:02.214',0.665,-0.510
'0:02.217',0.700,-0.590
'0:02.219',0.695,-0.680
'0:02.222',0.660,-0.775
'0:02.225',0.630,-0.785
'0:02.228',0.535,-0.710
'0:02.231',0.405,-0.570
'0:02.233',0.150,-0.455
'0:02.236',-0.160,-0.440
'0:02.239',-0.470,-0.540
'0:02.242',-0.690,-0.675
'0:02.244',-0.840,-0.785
'0:02.247',-0.895,-0.830
'0:02.250',-0.925,-0.780
'0:02.253',-0.900,-0.760
'0:02.256',-0.860,-0.770
'0:02.258',-0.805,-0.790
'0:02.261',-0.800,-0.765
'0:02.264',-0.810,-0.730
'0:02.267',-0.875,-0.680
'0:02.269',-0.950,-0.670
'0:02.272',-1.000,-0.730
'0:02.275',-1.020,-0.790
'0:02.278',-1.045,-0.835
'0:02.281',-1.050,-0.790
'0:02.283',-1.065,-0.715
'0:02.286',-1.065,-0.695
'0:02.289',-1.060,-0.690
'0:02.292',-1.050,-0.730
'0:02.294',-1.015,-0.755
'0:02.297',-1.010,-0.730
'0:02.300',-1.015,-0.680
'0:02.303',-1.055,-0.645
'0:02.306',-1.045,-0.660
'0:02.308',-1.035,-0.705
'0:02.311',-1.035,-0.750
'0:02.314',-1.025,-0.740
'0:02.317',-1.030,-0.685
'0:02.319',-1.030,-0.640
'0:02.322',-1.030,-0.620
'0:02.325',-1.020,-0.665
'0:02.328',-1.020,-0.695
'0:02.331',-1.000,-0.680
'0:02.333',-1.025,-0.640
'0:02.336',-1.025,-0.625
'0:02.339',-1.045,-0.640
'0:02.342',-1.050,-0.705
'0:02.344',-1.045,-0.710
'0:02.347',-1.040,-0.685
'0:02.350',-1.030,-0.615
'0:02.353',-1.030,-0.610
'0:02.356',-1.015,-0.635
'0:02.358',-1.010,-0.655
'0:02.361',-1.000,-0.630
'0:02.364',-1.010,-0.585
'0:02.367',-1.035,-0.575
'0:02.369',-1.040,-0.605
'0:02.372',-1.025,-0.655
'0:02.375',-1.000,-0.665
'0:02.378',-0.995,-0.615
'0:02.381',-1.015,-0.560
'0:02.383',-1.025,-0.555
'0:02.386',-1.020,-0.570
'0:02.389',-1.005,-0.625
'0:02.392',-0.985,-0.635
'0:02.394',-0.970,-0.580
'0:02.397',-0.975,-0.520
'0:02.400',-1.015,-0.480
'0:02.403',-1.020,-0.515
'0:02.406',-1.015,-0.590
'0:02.408',-1.010,-0.625
'0:02.411',-0.985,-0.595
'0:02.414',-0.960,-0.550
'0:02.417',-0.965,-0.525
'0:02.419',-0.960,-0.540
'0:02.422',-0.970,-0.580
'0:02.425',-0.950,-0.575
'0:02.428',-0.950,-0.530
'0:02.431',-0.940,-0.505
'0:02.433',-0.965,-0.510
'0:02.436',-0.965,-0.565
'0:02.439',-0.935,-0.610
'0:02.442',-0.910,-0.610
'0:02.444',-0.925,-0.565
'0:02.447',-0.945,-0.530
'0:02.450',-0.950,-0.510
'0:02.453',-0.950,-0.575
'0:02.456',-0.950,-0.615
'0:02.458',-0.900,-0.640
'0:02.461',-0.900,-0.610
'0:02.464',-0.890,-0.550
'0:02.467',-0.890,-0.525
'0:02.469',-0.915,-0.560
'0:02.472',-0.890,-0.625
'0:02.475',-0.890,-0.660
'0:02.478',-0.895,-0.665
'0:02.481',-0.885,-0.615
'0:02.483',-0.910,-0.590
'0:02.486',-0.920,-0.590
'0:02.489',-0.905,-0.655
'0:02.492',-0.905,-0.670
'0:02.494',-0.885,-0.645
'0:02.497',-0.870,-0.590
'0:02.500',-0.900,-0.560
'0:02.503',-0.925,-0.580
'0:02.506',-0.915,-0.655
'0:02.508',-0.925,-0.705
'0:02.511',-0.935,-0.710
'0:02.514',-0.950,-0.645
'0:02.517',-0.965,-0.610
'0:02.519',-0.960,-0.630
'0:02.522',-0.950,-0.655
'0:02.525',-0.925,-0.705
'0:02.528',-0.890,-0.680
'0:02.531',-0.875,-0.615
'0:02.533',-0.895,-0.605
'0:02.536',-0.905,-0.635
'0:02.539',-0.920,-0.695
'0:02.542',-0.915,-0.710
'0:02.544',-0.935,-0.680
'0:02.547',-0.950,-0.640
'0:02.550',-0.950,-0.660
'0:02.553',-0.950,-0.700
'0:02.556',-0.935,-0.695
'0:02.558',-0.925,-0.645
'0:02.561',-0.950,-0.600
'0:02.564',-0.945,-0.600
'0:02.567',-0.925,-0.640
'0:02.569',-0.925,-0.700
'0:02.572',-0.925,-0.690
'0:02.575',-0.935,-0.660
'0:02.578',-0.960,-0.625
'0:02.581',-0.970,-0.635
'0:02.583',-0.975,-0.700
'0:02.586',-0.990,-0.730
'0:02.589',-0.970,-0.700
'0:02.592',-0.990,-0.660
'0:02.594',-0.990,-0.610
'0:02.597',-1.005,-0.625
'0:02.600',-0.990,-0.680
'0:02.603',-0.970,-0.715
'0:02.606',-0.975,-0.710
'0:02.608',-0.985,-0.685
'0:02.611',-1.015,-0.650
'0:02.614',-1.010,-0.700
'0:02.617',-1.015,-0.720
'0:02.619',-1.000,-0.730
'0:02.622',-1.000,-0.690
'0:02.625',-0.985,-0.650
'0:02.628',-0.995,-0.630
'0:02.631',-0.950,-0.670
'0:02.633',-0.935,-0.710
'0:02.636',-0.925,-0.695
'0:02.639',-0.925,-0.675
'0:02.642',-0.940,-0.620
'0:02.644',-0.945,-0.630
'0:02.647',-0.940,-0.660
'0:02.650',-0.925,-0.705
'0:02.653',-0.860,-0.720
'0:02.656',-0.830,-0.660
'0:02.658',-0.825,-0.580
'0:02.661',-0.835,-0.565
'0:02.664',-0.790,-0.590
'0:02.667',-0.765,-0.650
'0:02.669',-0.755,-0.660
'0:02.672',-0.750,-0.595
'0:02.675',-0.760,-0.580
'0:02.678',-0.785,-0.540
'0:02.681',-0.770,-0.585
'0:02.683',-0.770,-0.635
'0:02.686',-0.755,-0.635
'0:02.689',-0.745,-0.570
'0:02.692',-0.745,-0.520
'0:02.694',-0.775,-0.510
'0:02.697',-0.775,-0.545
'0:02.700',-0.780,-0.630
'0:02.703',-0.775,-0.640
'0:02.706',-0.785,-0.610
'0:02.708',-0.810,-0.560
'0:02.711',-0.830,-0.535
'0:02.714',-0.840,-0.560
'0:02.717',-0.840,-0.635
'0:02.719',-0.840,-0.665
'0:02.722',-0.850,-0.655
'0:02.725',-0.865,-0.615
'0:02.728',-0.900,-0.590
'0:02.731',-0.910,-0.625
'0:02.733',-0.920,-0.670
'0:02.736',-0.925,-0.690
'0:02.739',-0.930,-0.660
'0:02.742',-0.960,-0.620
'0:02.744',-0.990,-0.605
'0:02.747',-1.005,-0.660
'0:02.750',-1.015,-0.700
'0:02.753',-1.010,-0.685
'0:02.756',-1.005,-0.625
'0:02.758',-0.985,-0.605
'0:02.761',-0.980,-0.615
'0:02.764',-0.960,-0.650
'0:02.767',-0.950,-0.670
'0:02.769',-0.960,-0.625
'0:02.772',-0.980,-0.595
'0:02.775',-1.060,-0.675
'0:02.778',-1.110,-0.740
'0:02.781',-1.150,-0.745
'0:02.783',-1.190,-0.685
'0:02.786',-1.225,-0.615
'0:02.789',-1.180,-0.580
'0:02.792',-1.100,-0.595
'0:02.794',-0.965,-0.595
'0:02.797',-0.815,-0.535
'0:02.800',-0.625,-0.420
'0:02.803',-0.435,-0.335
'0:02.806',-0.250,-0.270
'0:02.808',-0.075,-0.265
'0:02.811',0.100,-0.300
'0:02.814',0.260,-0.290
'0:02.817',0.420,-0.280
'0:02.819',0.545,-0.285
'0:02.822',0.625,-0.350
'0:02.825',0.680,-0.495
'0:02.828',0.695,-0.655
'0:02.831',0.695,-0.745
'0:02.833',0.635,-0.725
'0:02.836',0.540,-0.660
'0:02.839',0.390,-0.570
'0:02.842',0.190,-0.555
'0:02.844',-0.065,-0.530
'0:02.847',-0.370,-0.555
'0:02.850',-0.640,-0.540
'0:02.853',-0.840,-0.570
'0:02.856',-0.960,-0.605
'0:02.858',-0.980,-0.680
'0:02.861',-0.940,-0.740
'0:02.864',-0.875,-0.750
'0:02.867',-0.825,-0.680
'0:02.869',-0.815,-0.615
'0:02.872',-0.845,-0.595
'0:02.875',-0.885,-0.615
'0:02.878',-0.935,-0.680
'0:02.881',-0.980,-0.705
'0:02.883',-1.020,-0.660
'0:02.886',-1.040,-0.615
'0:02.889',-1.060,-0.610
'0:02.892',-1.065,-0.625
'0:02.894',-1.020,-0.670
'0:02.897',-1.010,-0.635
'0:02.900',-1.020,-0.610
'0:02.903',-1.035,-0.575
'0:02.906',-1.060,-0.585
'0:02.908',-1.065,-0.640
'0:02.911',-1.060,-0.685
'0:02.914',-1.035,-0.675
'0:02.917',-1.020,-0.615
'0:02.919',-1.015,-0.550
'0:02.922',-1.010,-0.530
'0:02.925',-0.995,-0.565
'0:02.928',-0.990,-0.615
'0:02.931',-0.995,-0.610
'0:02.933',-1.005,-0.585
'0:02.936',-1.035,-0.550
'0:02.939',-1.030,-0.580
'0:02.942',-1.035,-0.615
'0:02.944',-1.035,-0.645
'0:02.947',-1.030,-0.595
'0:02.950',-1.040,-0.535
'0:02.953',-1.040,-0.550
'0:02.956',-1.015,-0.570
'0:02.958',-1.010,-0.565
'0:02.961',-0.995,-0.545
'0:02.964',-0.985,-0.500
'0:02.967',-1.000,-0.490
'0:02.969',-1.025,-0.535
'0:02.972',-1.030,-0.580
'0:02.975',-1.025,-0.615
'0:02.978',-1.025,-0.560
'0:02.981',-1.025,-0.505
'0:02.983',-1.025,-0.470
'0:02.986',-1.025,-0.485
'0:02.989',-1.005,-0.540
'0:02.992',-0.970,-0.525
'0:02.994',-0.960,-0.500
'0:02.997',-0.960,-0.440
'0:03.000',-0.985,-0.415
'0:03.003',-1.000,-0.455
'0:03.006',-1.025,-0.525
'0:03.008',-1.000,-0.530
'0:03.011',-0.990,-0.515
'0:03.014',-0.985,-0.455
'0:03.017',-0.980,-0.425
'0:03.019',-0.975,-0.430
'0:03.022',-0.955,-0.485
'0:03.025',-0.930,-0.470
'0:03.028',-0.915,-0.435
'0:03.031',-0.930,-0.405
'0:03.033',-0.945,-0.410
'0:03.036',-0.950,-0.470
'0:03.039',-0.955,-0.525
'0:03.042',-0.945,-0.530
'0:03.044',-0.945,-0.490
'0:03.047',-0.945,-0.440
'0:03.050',-0.970,-0.425
'0:03.053',-0.960,-0.460
'0:03.056',-0.935,-0.530
'0:03.058',-0.920,-0.530
'0:03.061',-0.905,-0.485
'0:03.064',-0.905,-0.435
'0:03.067',-0.915,-0.430
'0:03.069',-0.920,-0.490
'0:03.072',-0.915,-0.545
'0:03.075',-0.905,-0.590
'0:03.078',-0.930,-0.550
'0:03.081',-0.930,-0.510
'0:03.083',-0.945,-0.505
'0:03.086',-0.930,-0.555
'0:03.089',-0.905,-0.600
'0:03.092',-0.880,-0.610
'0:03.094',-0.865,-0.555
'0:03.097',-0.890,-0.490
'0:03.100',-0.910,-0.485
'0:03.103',-0.930,-0.525
'0:03.106',-0.915,-0.615
'0:03.108',-0.925,-0.660
'0:03.111',-0.915,-0.650
'0:03.114',-0.940,-0.590
'0:03.117',-0.940,-0.535
'0:03.119',-0.940,-0.560
'0:03.122',-0.940,-0.600
'0:03.125',-0.905,-0.650
'0:03.128',-0.895,-0.635
'0:03.131',-0.910,-0.580
'0:03.133',-0.910,-0.540
'0:03.136',-0.945,-0.565
'0:03.139',-0.955,-0.625
'0:03.142',-0.945,-0.665
'0:03.144',-0.940,-0.660
'0:03.147',-0.970,-0.600
'0:03.150',-0.955,-0.575
'0:03.153',-0.945,-0.580
'0:03.156',-0.930,-0.630
'0:03.158',-0.925,-0.620
'0:03.161',-0.920,-0.595
'0:03.164',-0.940,-0.555
'0:03.167',-0.930,-0.545
'0:03.169',-0.950,-0.590
'0:03.172',-0.950,-0.655
'0:03.175',-0.960,-0.655
'0:03.178',-0.960,-0.625
'0:03.181',-0.975,-0.580
'0:03.183',-0.985,-0.555
'0:03.186',-0.990,-0.610
'0:03.189',-0.975,-0.650
'0:03.192',-0.960,-0.635
'0:03.194',-0.960,-0.600
'0:03.197',-0.965,-0.555
'0:03.200',-1.000,-0.550
'0:03.203',-1.020,-0.580
'0:03.206',-1.005,-0.650
'0:03.208',-1.010,-0.670
'0:03.211',-1.015,-0.635
'0:03.214',-1.030,-0.585
'0:03.217',-1.045,-0.570
'0:03.219',-1.030,-0.600
'0:03.222',-1.015,-0.660
'0:03.225',-1.000,-0.640
'0:03.228',-0.990,-0.595
'0:03.231',-0.995,-0.535
'0:03.233',-1.000,-0.550
'0:03.236',-1.015,-0.595
'0:03.239',-1.020,-0.670
'0:03.242',-1.010,-0.680
'0:03.244',-1.000,-0.655
'0:03.247',-1.010,-0.580
'0:03.250',-1.020,-0.565
'0:03.253',-1.015,-0.600
'0:03.256',-1.015,-0.645
'0:03.258',-0.985,-0.650
'0:03.261',-0.975,-0.600
'0:03.264',-0.970,-0.550
'0:03.267',-0.985,-0.540
'0:03.269',-0.970,-0.570
'0:03.272',-0.980,-0.655
'0:03.275',-0.965,-0.660
'0:03.278',-0.955,-0.625
'0:03.281',-0.965,-0.575
'0:03.283',-0.965,-0.570
'0:03.286',-0.955,-0.590
'0:03.289',-0.935,-0.635
'0:03.292',-0.915,-0.630
'0:03.294',-0.920,-0.575
'0:03.297',-0.915,-0.545
'0:03.300',-0.915,-0.540
'0:03.303',-0.895,-0.585
'0:03.306',-0.870,-0.635
'0:03.308',-0.845,-0.645
'0:03.311',-0.835,-0.615
'0:03.314',-0.820,-0.565
'0:03.317',-0.820,-0.550
'0:03.319',-0.810,-0.560
'0:03.322',-0.770,-0.595
'0:03.325',-0.750,-0.560
'0:03.328',-0.755,-0.490
'0:03.331',-0.760,-0.460
'0:03.333',-0.760,-0.470
'0:03.336',-0.780,-0.545
'0:03.339',-0.780,-0.570
'0:03.342',-0.790,-0.560
'0:03.344',-0.830,-0.505
'0:03.347',-0.840,-0.505
'0:03.350',-0.845,-0.535
'0:03.353',-0.855,-0.565
'0:03.356',-0.815,-0.575
'0:03.358',-0.815,-0.520
'0:03.361',-0.825,-0.480
'0:03.364',-0.835,-0.495
'0:03.367',-0.855,-0.540
'0:03.369',-0.880,-0.610
'0:03.372',-0.900,-0.610
'0:03.375',-0.930,-0.595
'0:03.378',-0.970,-0.590
'0:03.381',-0.970,-0.635
'0:03.383',-0.975,-0.645
'0:03.386',-0.965,-0.655
'0:03.389',-0.970,-0.605
'0:03.392',-0.980,-0.525
'0:03.394',-0.990,-0.510
'0:03.397',-1.000,-0.560
'0:03.400',-1.010,-0.610
'0:03.403',-1.005,-0.655
'0:03.406',-1.005,-0.650
'0:03.408',-1.020,-0.580
'0:03.411',-1.030,-0.560
'0:03.414',-1.030,-0.590
'0:03.417',-1.005,-0.635
'0:03.419',-1.015,-0.645
'0:03.422',-1.000,-0.630
'0:03.425',-1.010,-0.565
'0:03.428',-1.050,-0.535
'0:03.431',-1.110,-0.590
'0:03.433',-1.165,-0.635
'0:03.436',-1.195,-0.655
'0:03.439',-1.215,-0.640
'0:03.442',-1.200,-0.575
'0:03.444',-1.160,-0.550
'0:03.447',-1.060,-0.540
'0:03.450',-0.895,-0.520
'0:03.453',-0.690,-0.475
'0:03.456',-0.465,-0.370
'0:03.458',-0.290,-0.270
'0:03.461',-0.115,-0.170
'0:03.464',0.050,-0.180
'0:03.467',0.225,-0.230
'0:03.469',0.365,-0.285
'0:03.472',0.495,-0.310
'0:03.475',0.580,-0.315
'0:03.478',0.605,-0.375
'0:03.481',0.630,-0.505
'0:03.483',0.615,-0.665
'0:03.486',0.605,-0.765
'0:03.489',0.575,-0.745
'0:03.492',0.520,-0.625
'0:03.494',0.415,-0.465
'0:03.497',0.235,-0.370
'0:03.500',-0.055,-0.360
'0:03.503',-0.370,-0.440
'0:03.506',-0.655,-0.540
'0:03.508',-0.865,-0.585
'0:03.511',-0.985,-0.610
'0:03.514',-1.035,-0.645
'0:03.517',-1.025,-0.700
'0:03.519',-0.930,-0.720
'0:03.522',-0.880,-0.705
'0:03.525',-0.860,-0.630
'0:03.528',-0.885,-0.540
'0:03.531',-0.905,-0.495
'0:03.533',-0.960,-0.545
'0:03.536',-1.000,-0.610
'0:03.539',-1.040,-0.665
'0:03.542',-1.065,-0.655
'0:03.544',-1.100,-0.610
'0:03.547',-1.110,-0.585
'0:03.550',-1.095,-0.590
'0:03.553',-1.095,-0.600
'0:03.556',-1.065,-0.595
'0:03.558',-1.045,-0.565
'0:03.561',-1.055,-0.505
'0:03.564',-1.060,-0.530
'0:03.567',-1.075,-0.575
'0:03.569',-1.070,-0.610
'0:03.572',-1.055,-0.585
'0:03.575',-1.060,-0.555
'0:03.578',-1.075,-0.535
'0:03.581',-1.090,-0.565
'0:03.583',-1.080,-0.605
'0:03.586',-1.065,-0.605
'0:03.589',-1.045,-0.565
'0:03.592',-1.045,-0.515
'0:03.594',-1.040,-0.450
'0:03.597',-1.045,-0.480
'0:03.600',-1.055,-0.535
'0:03.603',-1.040,-0.595
'0:03.606',-1.035,-0.585
'0:03.608',-1.055,-0.535
'0:03.611',-1.080,-0.485
'0:03.614',-1.085,-0.490
'0:03.617',-1.080,-0.525
'0:03.619',-1.050,-0.565
'0:03.622',-1.040,-0.525
'0:03.625',-1.045,-0.465
'0:03.628',-1.040,-0.420
'0:03.631',-1.045,-0.440
'0:03.633',-1.040,-0.485
'0:03.636',-1.025,-0.540
'0:03.639',-1.020,-0.505
'0:03.642',-1.020,-0.460
'0:03.644',-1.025,-0.420
'0:03.647',-1.025,-0.415
'0:03.650',-1.020,-0.470
'0:03.653',-1.020,-0.500
'0:03.656',-0.980,-0.490
'0:03.658',-0.980,-0.450
'0:03.661',-0.980,-0.380
'0:03.664',-0.990,-0.360
'0:03.667',-1.000,-0.405
'0:03.669',-0.990,-0.470
'0:03.672',-0.980,-0.495
'0:03.675',-0.995,-0.465
'0:03.678',-0.995,-0.395
'0:03.681',-1.010,-0.390
'0:03.683',-1.000,-0.435
'0:03.686',-0.990,-0.470
'0:03.689',-0.970,-0.470
'0:03.692',-0.965,-0.415
'0:03.694',-0.950,-0.360
'0:03.697',-0.955,-0.380
'0:03.700',-0.965,-0.425
'0:03.703',-0.960,-0.485
'0:03.706',-0.930,-0.500
'0:03.708',-0.945,-0.460
'0:03.711',-0.950,-0.405
'0:03.714',-0.970,-0.410
'0:03.717',-0.960,-0.440
'0:03.719',-0.940,-0.505
'0:03.722',-0.910,-0.505
'0:03.725',-0.910,-0.485
'0:03.728',-0.910,-0.410
'0:03.731',-0.920,-0.415
'0:03.733',-0.920,-0.480
'0:03.736',-0.905,-0.535
'0:03.739',-0.910,-0.550
'0:03.742',-0.920,-0.520
'0:03.744',-0.935,-0.500
'0:03.747',-0.965,-0.510
'0:03.750',-0.955,-0.560
'0:03.753',-0.935,-0.570
'0:03.756',-0.930,-0.570
'0:03.758',-0.925,-0.515
'0:03.761',-0.935,-0.495
'0:03.764',-0.935,-0.540
'0:03.767',-0.935,-0.595
'0:03.769',-0.935,-0.615
'0:03.772',-0.960,-0.575
'0:03.775',-0.985,-0.535
'0:03.778',-0.980,-0.535
'0:03.781',-0.970,-0.585
'0:03.783',-0.975,-0.635
'0:03.786',-0.940,-0.610
'0:03.789',-0.945,-0.565
'0:03.792',-0.940,-0.510
'0:03.794',-0.945,-0.505
'0:03.797',-0.945,-0.555
'0:03.800',-0.950,-0.625
'0:03.803',-0.955,-0.635
'0:03.806',-0.955,-0.630
'0:03.808',-0.965,-0.560
'0:03.811',-0.995,-0.540
'0:03.814',-1.010,-0.575
'0:03.817',-0.995,-0.625
'0:03.819',-0.965,-0.645
'0:03.822',-0.955,-0.605
'0:03.825',-0.950,-0.530
'0:03.828',-0.970,-0.520
'0:03.831',-0.980,-0.545
'0:03.833',-0.990,-0.595
'0:03.836',-0.970,-0.635
'0:03.839',-0.990,-0.620
'0:03.842',-1.015,-0.580
'0:03.844',-1.020,-0.560
'0:03.847',-1.040,-0.600
'0:03.850',-1.030,-0.655
'0:03.853',-1.025,-0.655
'0:03.856',-1.015,-0.610
'0:03.858',-1.015,-0.535
'0:03.861',-1.025,-0.515
'0:03.864',-1.020,-0.545
'0:03.867',-1.020,-0.595
'0:03.869',-1.025,-0.635
'0:03.872',-1.030,-0.635
'0:03.875',-1.045,-0.580
'0:03.878',-1.080,-0.560
'0:03.881',-1.085,-0.600
'0:03.883',-1.085,-0.655
'0:03.886',-1.065,-0.655
'0:03.889',-1.050,-0.630
'0:03.892',-1.035,-0.550
'0:03.894',-1.030,-0.525
'0:03.897',-1.035,-0.570
'0:03.900',-1.025,-0.615
'0:03.903',-1.015,-0.650
'0:03.906',-1.025,-0.625
'0:03.908',-1.045,-0.580
'0:03.911',-1.055,-0.550
'0:03.914',-1.065,-0.585
'0:03.917',-1.045,-0.630
'0:03.919',-1.040,-0.655
'0:03.922',-1.010,-0.615
'0:03.925',-1.020,-0.550
'0:03.928',-0.995,-0.530
'0:03.931',-0.980,-0.555
'0:03.933',-0.965,-0.615
'0:03.936',-0.950,-0.630
'0:03.939',-0.965,-0.610
'0:03.942',-0.955,-0.580
'0:03.944',-0.970,-0.560
'0:03.947',-0.955,-0.595
'0:03.950',-0.925,-0.630
'0:03.953',-0.880,-0.615
'0:03.956',-0.875,-0.575
'0:03.958',-0.855,-0.510
'0:03.961',-0.840,-0.515
'0:03.964',-0.800,-0.560
'0:03.967',-0.785,-0.585
'0:03.969',-0.765,-0.565
'0:03.972',-0.775,-0.505
'0:03.975',-0.800,-0.470
'0:03.978',-0.805,-0.505
'0:03.981',-0.790,-0.550
'0:03.983',-0.795,-0.565
'0:03.986',-0.790,-0.515
'0:03.989',-0.805,-0.475
'0:03.992',-0.805,-0.465
'0:03.994',-0.815,-0.495
'0:03.997',-0.805,-0.550
'0:04.000',-0.805,-0.585
'0:04.003',-0.820,-0.550
'0:04.006',-0.835,-0.485
'0:04.008',-0.870,-0.475
'0:04.011',-0.880,-0.515
'0:04.014',-0.880,-0.590
'0:04.017',-0.885,-0.635
'0:04.019',-0.895,-0.615
'0:04.022',-0.930,-0.565
'0:04.025',-0.950,-0.520
'0:04.028',-0.975,-0.530
'0:04.031',-0.960,-0.600
'0:04.033',-0.955,-0.625
'0:04.036',-0.970,-0.625
'0:04.039',-0.995,-0.585
'0:04.042',-1.010,-0.565
'0:04.044',-1.020,-0.570
'0:04.047',-1.035,-0.620
'0:04.050',-1.030,-0.655
'0:04.053',-1.015,-0.630
'0:04.056',-1.015,-0.575
'0:04.058',-1.020,-0.515
'0:04.061',-1.035,-0.515
'0:04.064',-1.025,-0.575
'0:04.067',-1.025,-0.645
'0:04.069',-1.000,-0.665
'0:04.072',-1.010,-0.630
'0:04.075',-1.035,-0.580
'0:04.078',-1.070,-0.570
'0:04.081',-1.085,-0.605
'0:04.083',-1.090,-0.665
'0:04.086',-1.125,-0.665
'0:04.089',-1.155,-0.620
'0:04.092',-1.205,-0.565
'0:04.094',-1.210,-0.520
'0:04.097',-1.180,-0.535
'0:04.100',-1.070,-0.555
'0:04.103',-0.920,-0.515
'0:04.106',-0.745,-0.405
'0:04.108',-0.550,-0.320
'0:04.111',-0.355,-0.270
'0:04.114',-0.170,-0.290
'0:04.117',0.025,-0.290
'0:04.119',0.210,-0.255
'0:04.122',0.380,-0.175
'0:04.125',0.510,-0.160
'0:04.128',0.600,-0.195
'0:04.131',0.650,-0.335
'0:04.133',0.685,-0.510
'0:04.136',0.670,-0.645
'0:04.139',0.625,-0.685
'0:04.142',0.550,-0.625
'0:04.144',0.465,-0.550
'0:04.147',0.355,-0.490
'0:04.150',0.170,-0.455
'0:04.153',-0.120,-0.415
'0:04.156',-0.420,-0.420
'0:04.158',-0.715,-0.425
'0:04.161',-0.905,-0.505
'0:04.164',-1.000,-0.620
'0:04.167',-1.005,-0.695
'0:04.169',-0.960,-0.710
'0:04.172',-0.915,-0.650
'0:04.175',-0.890,-0.580
'0:04.178',-0.910,-0.550
'0:04.181',-0.935,-0.585
'0:04.183',-0.975,-0.635
'0:04.186',-1.025,-0.620
'0:04.189',-1.050,-0.570
'0:04.192',-1.075,-0.525
'0:04.194',-1.090,-0.520
'0:04.197',-1.090,-0.570
'0:04.200',-1.070,-0.600
'0:04.203',-1.060,-0.615
'0:04.206',-1.065,-0.575
'0:04.208',-1.090,-0.520
'0:04.211',-1.095,-0.510
'0:04.214',-1.100,-0.530
'0:04.217',-1.080,-0.585
'0:04.219',-1.070,-0.605
'0:04.222',-1.065,-0.560
'0:04.225',-1.065,-0.490
'0:04.228',-1.050,-0.450
'0:04.231',-1.075,-0.480
'0:04.233',-1.065,-0.530
'0:04.236',-1.040,-0.570
'0:04.239',-1.035,-0.550
'0:04.242',-1.040,-0.515
'0:04.244',-1.065,-0.485
'0:04.247',-1.075,-0.505
'0:04.250',-1.075,-0.545
'0:04.253',-1.050,-0.565
'0:04.256',-1.040,-0.515
'0:04.258',-1.035,-0.440
'0:04.261',-1.055,-0.400
'0:04.264',-1.075,-0.430
'0:04.267',-1.045,-0.470
'0:04.269',-1.040,-0.530
'0:04.272',-1.045,-0.545
'0:04.275',-1.040,-0.500
'0:04.278',-1.060,-0.450
'0:04.281',-1.070,-0.445
'0:04.283',-1.060,-0.490
'0:04.286',-1.045,-0.515
'0:04.289',-1.000,-0.500
'0:04.292',-1.000,-0.420
'0:04.294',-1.035,-0.380
'0:04.297',-1.035,-0.390
'0:04.300',-1.025,-0.420
'0:04.303',-1.015,-0.465
'0:04.306',-1.005,-0.470
'0:04.308',-1.010,-0.415
'0:04.311',-1.030,-0.380
'0:04.314',-1.040,-0.380
'0:04.317',-1.040,-0.425
'0:04.319',-1.020,-0.470
'0:04.322',-0.985,-0.455
'0:04.325',-0.975,-0.400
'0:04.328',-0.965,-0.320
'0:04.331',-0.970,-0.315
'0:04.333',-0.980,-0.345
'0:04.336',-0.980,-0.390
'0:04.339',-0.960,-0.450
'0:04.342',-0.970,-0.450
'0:04.344',-0.970,-0.390
'0:04.347',-0.965,-0.350
'0:04.350',-0.965,-0.365
'0:04.353',-0.965,-0.410
'0:04.356',-0.950,-0.435
'0:04.358',-0.935,-0.395
'0:04.361',-0.915,-0.335
'0:04.364',-0.935,-0.345
'0:04.367',-0.925,-0.385
'0:04.369',-0.920,-0.440
'0:04.372',-0.930,-0.465
'0:04.375',-0.925,-0.445
'0:04.378',-0.940,-0.400
'0:04.381',-0.950,-0.430
'0:04.383',-0.935,-0.470
'0:04.386',-0.920,-0.505
'0:04.389',-0.905,-0.495
'0:04.392',-0.885,-0.450
'0:04.394',-0.900,-0.405
'0:04.397',-0.905,-0.430
'0:04.400',-0.910,-0.480
'0:04.403',-0.910,-0.535
'0:04.406',-0.885,-0.555
'0:04.408',-0.905,-0.525
'0:04.411',-0.925,-0.485
'0:04.414',-0.930,-0.490
'0:04.417',-0.945,-0.530
'0:04.419',-0.940,-0.580
'0:04.422',-0.910,-0.595
'0:04.425',-0.890,-0.540
'0:04.428',-0.920,-0.485
'0:04.431',-0.920,-0.460
'0:04.433',-0.925,-0.495
'0:04.436',-0.920,-0.570
'0:04.439',-0.925,-0.600
'0:04.442',-0.930,-0.605
'0:04.444',-0.935,-0.565
'0:04.447',-0.950,-0.520
'0:04.450',-0.965,-0.535
'0:04.453',-0.975,-0.590
'0:04.456',-0.945,-0.610
'0:04.458',-0.925,-0.595
'0:04.461',-0.925,-0.505
'0:04.464',-0.945,-0.475
'0:04.467',-0.940,-0.500
'0:04.469',-0.940,-0.555
'0:04.472',-0.945,-0.620
'0:04.475',-0.940,-0.620
'0:04.478',-0.950,-0.590
'0:04.481',-0.975,-0.540
'0:04.483',-0.985,-0.515
'0:04.486',-1.000,-0.535
'0:04.489',-0.970,-0.585
'0:04.492',-0.960,-0.595
'0:04.494',-0.950,-0.540
'0:04.497',-0.940,-0.495
'0:04.500',-0.965,-0.490
'0:04.503',-0.970,-0.540
'0:04.506',-0.970,-0.590
'0:04.508',-0.980,-0.630
'0:04.511',-0.980,-0.600
'0:04.514',-1.015,-0.540
'0:04.517',-1.030,-0.490
'0:04.519',-1.035,-0.520
'0:04.522',-1.025,-0.575
'0:04.525',-1.000,-0.605
'0:04.528',-0.995,-0.595
'0:04.531',-0.990,-0.545
'0:04.533',-1.000,-0.490
'0:04.536',-1.035,-0.490
'0:04.539',-1.040,-0.570
'0:04.542',-1.035,-0.605
'0:04.544',-1.020,-0.630
'0:04.547',-1.040,-0.600
'0:04.550',-1.020,-0.515
'0:04.553',-1.040,-0.495
'0:04.556',-1.040,-0.520
'0:04.558',-1.035,-0.575
'0:04.561',-1.005,-0.590
'0:04.564',-0.990,-0.560
'0:04.567',-1.005,-0.510
'0:04.569',-1.025,-0.495
'0:04.572',-1.025,-0.525
'0:04.575',-1.015,-0.590
'0:04.578',-1.000,-0.615
'0:04.581',-1.000,-0.590
'0:04.583',-1.000,-0.545
'0:04.586',-1.010,-0.490
'0:04.589',-0.995,-0.525
'0:04.592',-0.970,-0.565
'0:04.594',-0.935,-0.570
'0:04.597',-0.925,-0.540
'0:04.600',-0.930,-0.490
'0:04.603',-0.940,-0.480
'0:04.606',-0.945,-0.535
'0:04.608',-0.940,-0.600
'0:04.611',-0.925,-0.630
'0:04.614',-0.920,-0.595
'0:04.617',-0.905,-0.525
'0:04.619',-0.905,-0.460
'0:04.622',-0.885,-0.455
'0:04.625',-0.845,-0.520
'0:04.628',-0.805,-0.545
'0:04.631',-0.775,-0.550
'0:04.633',-0.765,-0.485
'0:04.636',-0.765,-0.430
'0:04.639',-0.770,-0.425
'0:04.642',-0.775,-0.460
'0:04.644',-0.770,-0.515
'0:04.647',-0.760,-0.515
'0:04.650',-0.745,-0.450
'0:04.653',-0.760,-0.410
'0:04.656',-0.790,-0.425
'0:04.658',-0.775,-0.450
'0:04.661',-0.770,-0.490
'0:04.664',-0.760,-0.485
'0:04.667',-0.765,-0.455
'0:04.669',-0.795,-0.405
'0:04.672',-0.830,-0.400
'0:04.675',-0.845,-0.475
'0:04.678',-0.840,-0.535
'0:04.681',-0.825,-0.550
'0:04.683',-0.830,-0.515
'0:04.686',-0.840,-0.445
'0:04.689',-0.870,-0.430
'0:04.692',-0.895,-0.440
'0:04.694',-0.900,-0.545
'0:04.697',-0.905,-0.600
'0:04.700',-0.905,-0.590
'0:04.703',-0.925,-0.535
'0:04.706',-0.950,-0.490
'0:04.708',-0.980,-0.485
'0:04.711',-1.010,-0.535
'0:04.714',-1.000,-0.605
'0:04.717',-0.995,-0.610
'0:04.719',-0.985,-0.545
'0:04.722',-0.995,-0.475
'0:04.725',-1.020,-0.450
'0:04.728',-1.020,-0.485
'0:04.731',-1.015,-0.535
'0:04.733',-1.000,-0.590
'0:04.736',-0.980,-0.580
'0:04.739',-0.970,-0.515
'0:04.742',-0.995,-0.480
'0:04.744',-1.015,-0.475
'0:04.747',-1.025,-0.530
'0:04.750',-1.030,-0.590
'0:04.753',-1.015,-0.600
'0:04.756',-1.035,-0.560
'0:04.758',-1.075,-0.470
'0:04.761',-1.120,-0.455
'0:04.764',-1.165,-0.490
'0:04.767',-1.180,-0.560
'0:04.769',-1.165,-0.560
'0:04.772',-1.100,-0.500
'0:04.775',-1.010,-0.420
'0:04.778',-0.850,-0.345
'0:04.781',-0.650,-0.315
'0:04.783',-0.430,-0.290
'0:04.786',-0.200,-0.230
'0:04.789',0.000,-0.140
'0:04.792',0.200,-0.065
'0:04.794',0.405,-0.065
'0:04.797',0.545,-0.150
'0:04.800',0.650,-0.235
'0:04.803',0.705,-0.320
'0:04.806',0.725,-0.390
'0:04.808',0.680,-0.460
'0:04.811',0.635,-0.535
'0:04.814',0.570,-0.605
'0:04.817',0.505,-0.585
'0:04.819',0.415,-0.495
'0:04.822',0.265,-0.345
'0:04.825',0.025,-0.230
'0:04.828',-0.275,-0.190
'0:04.831',-0.550,-0.315
'0:04.833',-0.750,-0.480
'0:04.836',-0.865,-0.605
'0:04.839',-0.925,-0.625
'0:04.842',-0.940,-0.600
'0:04.844',-0.920,-0.550
'0:04.847',-0.885,-0.525
'0:04.850',-0.860,-0.575
'0:04.853',-0.875,-0.560
'0:04.856',-0.875,-0.520
'0:04.858',-0.935,-0.465
'0:04.861',-0.980,-0.445
'0:04.864',-1.010,-0.470
'0:04.867',-1.030,-0.545
'0:04.869',-1.030,-0.565
'0:04.872',-1.035,-0.540
'0:04.875',-1.045,-0.500
'0:04.878',-1.055,-0.455
'0:04.881',-1.070,-0.450
'0:04.883',-1.065,-0.525
'0:04.886',-1.060,-0.540
'0:04.889',-1.045,-0.545
'0:04.892',-1.050,-0.485
'0:04.894',-1.040,-0.430
'0:04.897',-1.030,-0.375
'0:04.900',-1.035,-0.420
'0:04.903',-1.025,-0.480
'0:04.906',-1.025,-0.525
'0:04.908',-1.025,-0.480
'0:04.911',-1.035,-0.455
'0:04.914',-1.050,-0.445
'0:04.917',-1.055,-0.460
'0:04.919',-1.035,-0.490
'0:04.922',-1.010,-0.485
'0:04.925',-1.025,-0.440
'0:04.928',-1.015,-0.375
'0:04.931',-1.020,-0.365
'0:04.933',-1.025,-0.405
'0:04.936',-1.015,-0.470
'0:04.939',-1.005,-0.480
'0:04.942',-1.005,-0.445
'0:04.944',-1.015,-0.405
'0:04.947',-1.020,-0.350
'0:04.950',-1.040,-0.405
'0:04.953',-1.020,-0.435
'0:04.956',-1.015,-0.460
'0:04.958',-0.990,-0.395
'0:04.961',-0.980,-0.340
'0:04.964',-0.980,-0.315
'0:04.967',-0.985,-0.335
'0:04.969',-0.980,-0.385
'0:04.972',-0.970,-0.415
'0:04.975',-0.970,-0.380
'0:04.978',-0.990,-0.355
'0:04.981',-0.990,-0.340
'0:04.983',-0.985,-0.365
'0:04.986',-0.960,-0.385
'0:04.989',-0.945,-0.355
'0:04.992',-0.945,-0.320
'0:04.994',-0.940,-0.290
'0:04.997',-0.925,-0.325
'0:05.000',-0.925,-0.350
'0:05.003',-0.920,-0.355
'0:05.006',-0.920,-0.360
'0:05.008',-0.930,-0.315
'0:05.011',-0.945,-0.320
'0:05.014',-0.940,-0.365
'0:05.017',-0.935,-0.400
'0:05.019',-0.925,-0.380
'0:05.022',-0.915,-0.345
'0:05.025',-0.910,-0.300
'0:05.028',-0.905,-0.285
'0:05.031',-0.900,-0.350
'0:05.033',-0.885,-0.395
'0:05.036',-0.885,-0.400
'0:05.039',-0.900,-0.355
'0:05.042',-0.900,-0.340
'0:05.044',-0.920,-0.350
'0:05.047',-0.900,-0.415
'0:05.050',-0.890,-0.445
'0:05.053',-0.865,-0.435
'0:05.056',-0.860,-0.385
'0:05.058',-0.855,-0.345
'0:05.061',-0.880,-0.365
'0:05.064',-0.850,-0.420
'0:05.067',-0.825,-0.470
'0:05.069',-0.830,-0.480
'0:05.072',-0.835,-0.430
'0:05.075',-0.875,-0.395
'0:05.078',-0.885,-0.415
'0:05.081',-0.885,-0.480
'0:05.083',-0.870,-0.520
'0:05.086',-0.865,-0.540
'0:05.089',-0.865,-0.490
'0:05.092',-0.855,-0.410
'0:05.094',-0.870,-0.395
'0:05.097',-0.850,-0.415
'0:05.100',-0.860,-0.490
'0:05.103',-0.855,-0.535
'0:05.106',-0.850,-0.525
'0:05.108',-0.875,-0.460
'0:05.111',-0.885,-0.425
'0:05.114',-0.905,-0.445
'0:05.117',-0.910,-0.535
'0:05.119',-0.895,-0.545
'0:05.122',-0.870,-0.525
'0:05.125',-0.870,-0.460
'0:05.128',-0.875,-0.390
'0:05.131',-0.885,-0.405
'0:05.133',-0.885,-0.500
'0:05.136',-0.890,-0.540
'0:05.139',-0.875,-0.560
'0:05.142',-0.870,-0.535
'0:05.144',-0.900,-0.460
'0:05.147',-0.920,-0.445
'0:05.150',-0.935,-0.480
'0:05.153',-0.915,-0.520
'0:05.156',-0.905,-0.550
'0:05.158',-0.880,-0.540
'0:05.161',-0.880,-0.470
'0:05.164',-0.910,-0.415
'0:05.167',-0.915,-0.430
'0:05.169',-0.920,-0.490
'0:05.172',-0.915,-0.545
'0:05.175',-0.925,-0.555
'0:05.178',-0.955,-0.510
'0:05.181',-0.945,-0.475
'0:05.183',-0.960,-0.495
'0:05.186',-0.965,-0.515
'0:05.189',-0.960,-0.545
'0:05.192',-0.935,-0.510
'0:05.194',-0.955,-0.465
'0:05.197',-0.965,-0.445
'0:05.200',-0.990,-0.500
'0:05.203',-0.985,-0.545
'0:05.206',-0.980,-0.560
'0:05.208',-0.990,-0.515
'0:05.211',-1.005,-0.500
'0:05.214',-1.000,-0.515
'0:05.217',-1.010,-0.550
'0:05.219',-1.005,-0.570
'0:05.222',-0.995,-0.530
'0:05.225',-0.990,-0.480
'0:05.228',-0.980,-0.445
'0:05.231',-0.990,-0.490
'0:05.233',-0.985,-0.545
'0:05.236',-0.965,-0.565
'0:05.239',-0.965,-0.535
'0:05.242',-0.975,-0.500
'0:05.244',-1.000,-0.470
'0:05.247',-0.985,-0.510
'0:05.250',-0.980,-0.565
'0:05.253',-0.965,-0.570
'0:05.256',-0.950,-0.540
'0:05.258',-0.945,-0.485
'0:05.261',-0.930,-0.450
'0:05.264',-0.910,-0.475
'0:05.267',-0.905,-0.520
'0:05.269',-0.880,-0.545
'0:05.272',-0.885,-0.525
'0:05.275',-0.895,-0.495
'0:05.278',-0.910,-0.470
'0:05.281',-0.905,-0.535
'0:05.283',-0.885,-0.550
'0:05.286',-0.845,-0.555
'0:05.289',-0.810,-0.480
'0:05.292',-0.800,-0.425
'0:05.294',-0.795,-0.410
'0:05.297',-0.760,-0.455
'0:05.300',-0.750,-0.505
'0:05.303',-0.720,-0.510
'0:05.306',-0.710,-0.470
'0:05.308',-0.700,-0.405
'0:05.311',-0.710,-0.405
'0:05.314',-0.715,-0.435
'0:05.317',-0.705,-0.485
'0:05.319',-0.710,-0.485
'0:05.322',-0.715,-0.430
'0:05.325',-0.720,-0.375
'0:05.328',-0.735,-0.370
'0:05.331',-0.750,-0.400
'0:05.333',-0.750,-0.450
'0:05.336',-0.745,-0.490
'0:05.339',-0.755,-0.460
'0:05.342',-0.770,-0.410
'0:05.344',-0.795,-0.425
'0:05.347',-0.795,-0.455
'0:05.350',-0.800,-0.510
'0:05.353',-0.815,-0.505
'0:05.356',-0.805,-0.490
'0:05.358',-0.840,-0.450
'0:05.361',-0.850,-0.440
'0:05.364',-0.875,-0.485
'0:05.367',-0.895,-0.545
'0:05.369',-0.885,-0.560
'0:05.372',-0.900,-0.535
'0:05.375',-0.915,-0.490
'0:05.378',-0.935,-0.475
'0:05.381',-0.935,-0.515
'0:05.383',-0.940,-0.535
'0:05.386',-0.930,-0.540
'0:05.389',-0.945,-0.495
'0:05.392',-0.940,-0.465
'0:05.394',-0.935,-0.490
'0:05.397',-0.925,-0.525
'0:05.400',-0.925,-0.515
'0:05.403',-0.940,-0.495
'0:05.406',-0.955,-0.485
'0:05.408',-0.965,-0.485
'0:05.411',-0.985,-0.560
'0:05.414',-1.015,-0.590
'0:05.417',-1.075,-0.575
'0:05.419',-1.110,-0.515
'0:05.422',-1.160,-0.480
'0:05.425',-1.150,-0.470
'0:05.428',-1.070,-0.490
'0:05.431',-0.960,-0.500
'0:05.433',-0.825,-0.395
'0:05.436',-0.645,-0.300
'0:05.439',-0.445,-0.210
'0:05.442',-0.250,-0.195
'0:05.444',-0.060,-0.205
'0:05.447',0.120,-0.205
'0:05.450',0.290,-0.145
'0:05.453',0.470,-0.100
'0:05.456',0.605,-0.095
'0:05.458',0.710,-0.165
'0:05.461',0.765,-0.305
'0:05.464',0.770,-0.455
'0:05.467',0.725,-0.530
'0:05.469',0.665,-0.510
'0:05.472',0.580,-0.470
'0:05.475',0.485,-0.460
'0:05.478',0.330,-0.420
'0:05.481',0.075,-0.380
'0:05.483',-0.205,-0.325
'0:05.486',-0.500,-0.315
'0:05.489',-0.715,-0.380
'0:05.492',-0.830,-0.470
'0:05.494',-0.885,-0.585
'0:05.497',-0.850,-0.640
'0:05.500',-0.810,-0.600
'0:05.503',-0.780,-0.520
'0:05.506',-0.770,-0.460
'0:05.508',-0.800,-0.430
'0:05.511',-0.840,-0.500
'0:05.514',-0.880,-0.560
'0:05.517',-0.925,-0.575
'0:05.519',-0.955,-0.525
'0:05.522',-0.980,-0.475
'0:05.525',-0.995,-0.455
'0:05.528',-1.015,-0.475
'0:05.531',-1.005,-0.520
'0:05.533',-0.985,-0.530
'0:05.536',-0.990,-0.495
'0:05.539',-0.985,-0.450
'0:05.542',-1.000,-0.430
'0:05.544',-1.010,-0.470
'0:05.547',-1.015,-0.530
'0:05.550',-1.010,-0.560
'0:05.553',-0.990,-0.540
'0:05.556',-0.970,-0.465
'0:05.558',-0.990,-0.400
'0:05.561',-0.975,-0.375
'0:05.564',-0.965,-0.415
'0:05.567',-0.950,-0.485
'0:05.569',-0.950,-0.480
'0:05.572',-0.960,-0.460
'0:05.575',-0.975,-0.410
'0:05.578',-0.990,-0.405
'0:05.581',-0.990,-0.465
'0:05.583',-0.980,-0.470
'0:05.586',-0.970,-0.460
'0:05.589',-0.975,-0.430
'0:05.592',-0.985,-0.390
'0:05.594',-0.985,-0.400
'0:05.597',-0.945,-0.435
'0:05.600',-0.950,-0.440
'0:05.603',-0.950,-0.390
'0:05.606',-0.960,-0.365
'0:05.608',-0.970,-0.385
'0:05.611',-0.975,-0.420
'0:05.614',-0.965,-0.465
'0:05.617',-0.940,-0.450
'0:05.619',-0.950,-0.385
'0:05.622',-0.945,-0.315
'0:05.625',-0.960,-0.305
'0:05.628',-0.940,-0.350
'0:05.631',-0.915,-0.395
'0:05.633',-0.900,-0.400
'0:05.636',-0.915,-0.345
'0:05.639',-0.920,-0.310
'0:05.642',-0.940,-0.310
'0:05.644',-0.930,-0.350
'0:05.647',-0.945,-0.395
'0:05.650',-0.940,-0.405
'0:05.653',-0.930,-0.350
'0:05.656',-0.925,-0.295
'0:05.658',-0.910,-0.280
'0:05.661',-0.915,-0.295
'0:05.664',-0.910,-0.340
'0:05.667',-0.880,-0.370
'0:05.669',-0.870,-0.325
'0:05.672',-0.880,-0.295
'0:05.675',-0.895,-0.280
'0:05.678',-0.895,-0.340
'0:05.681',-0.885,-0.390
'0:05.683',-0.875,-0.410
'0:05.686',-0.875,-0.385
'0:05.689',-0.865,-0.300
'0:05.692',-0.865,-0.270
'0:05.694',-0.850,-0.280
'0:05.697',-0.830,-0.350
'0:05.700',-0.820,-0.395
'0:05.703',-0.830,-0.375
'0:05.706',-0.835,-0.345
'0:05.708',-0.845,-0.330
'0:05.711',-0.850,-0.370
'0:05.714',-0.840,-0.425
'0:05.717',-0.830,-0.455
'0:05.719',-0.815,-0.420
'0:05.722',-0.835,-0.380
'0:05.725',-0.840,-0.325
'0:05.728',-0.845,-0.370
'0:05.731',-0.825,-0.420
'0:05.733',-0.810,-0.465
'0:05.736',-0.810,-0.460
'0:05.739',-0.815,-0.415
'0:05.742',-0.850,-0.395
'0:05.744',-0.860,-0.420
'0:05.747',-0.870,-0.495
'0:05.750',-0.870,-0.535
'0:05.753',-0.845,-0.525
'0:05.756',-0.845,-0.485
'0:05.758',-0.830,-0.420
'0:05.761',-0.860,-0.395
'0:05.764',-0.855,-0.430
'0:05.767',-0.840,-0.500
'0:05.769',-0.840,-0.530
'0:05.772',-0.850,-0.515
'0:05.775',-0.870,-0.465
'0:05.778',-0.885,-0.460
'0:05.781',-0.875,-0.500
'0:05.783',-0.875,-0.545
'0:05.786',-0.885,-0.525
'0:05.789',-0.875,-0.495
'0:05.792',-0.860,-0.440
'0:05.794',-0.865,-0.450
'0:05.797',-0.860,-0.480
'0:05.800',-0.865,-0.525
'0:05.803',-0.850,-0.520
'0:05.806',-0.865,-0.495
'0:05.808',-0.880,-0.475
'0:05.811',-0.885,-0.490
'0:05.814',-0.895,-0.550
'0:05.817',-0.885,-0.550
'0:05.819',-0.885,-0.525
'0:05.822',-0.895,-0.475
'0:05.825',-0.915,-0.450
'0:05.828',-0.895,-0.475
'0:05.831',-0.890,-0.520
'0:05.833',-0.880,-0.550
'0:05.836',-0.890,-0.530
'0:05.839',-0.930,-0.485
'0:05.842',-0.940,-0.450
'0:05.844',-0.960,-0.475
'0:05.847',-0.960,-0.550
'0:05.850',-0.975,-0.570
'0:05.853',-0.950,-0.570
'0:05.856',-0.960,-0.505
'0:05.858',-0.970,-0.450
'0:05.861',-0.975,-0.450
'0:05.864',-0.975,-0.485
'0:05.867',-0.970,-0.550
'0:05.869',-0.955,-0.545
'0:05.872',-0.955,-0.530
'0:05.875',-0.965,-0.500
'0:05.878',-0.990,-0.505
'0:05.881',-0.980,-0.560
'0:05.883',-0.975,-0.590
'0:05.886',-0.960,-0.575
'0:05.889',-0.950,-0.520
'0:05.892',-0.950,-0.470
'0:05.894',-0.960,-0.455
'0:05.897',-0.945,-0.505
'0:05.900',-0.955,-0.570
'0:05.903',-0.940,-0.580
'0:05.906',-0.925,-0.555
'0:05.908',-0.925,-0.505
'0:05.911',-0.945,-0.470
'0:05.914',-0.975,-0.505
'0:05.917',-0.955,-0.550
'0:05.919',-0.945,-0.580
'0:05.922',-0.915,-0.540
'0:05.925',-0.895,-0.480
'0:05.928',-0.885,-0.425
'0:05.931',-0.880,-0.415
'0:05.933',-0.860,-0.480
'0:05.936',-0.855,-0.530
'0:05.939',-0.845,-0.540
'0:05.942',-0.860,-0.500
'0:05.944',-0.890,-0.470
'0:05.947',-0.885,-0.460
'0:05.950',-0.885,-0.505
'0:05.953',-0.840,-0.540
'0:05.956',-0.805,-0.525
'0:05.958',-0.770,-0.485
'0:05.961',-0.745,-0.440
'0:05.964',-0.745,-0.395
'0:05.967',-0.725,-0.440
'0:05.969',-0.705,-0.480
'0:05.972',-0.690,-0.500
'0:05.975',-0.705,-0.460
'0:05.978',-0.715,-0.400
'0:05.981',-0.725,-0.390
'0:05.983',-0.725,-0.415
'0:05.986',-0.715,-0.470
'0:05.989',-0.705,-0.490
'0:05.992',-0.700,-0.440
'0:05.994',-0.715,-0.385
'0:05.997',-0.715,-0.385
'0:06.000',-0.735,-0.425
'0:06.003',-0.740,-0.465
'0:06.006',-0.740,-0.460
'0:06.008',-0.770,-0.440
'0:06.011',-0.780,-0.430
'0:06.014',-0.795,-0.460
'0:06.017',-0.810,-0.515
'0:06.019',-0.825,-0.520
'0:06.022',-0.830,-0.485
'0:06.025',-0.850,-0.450
'0:06.028',-0.885,-0.450
'0:06.031',-0.885,-0.510
'0:06.033',-0.885,-0.560
'0:06.036',-0.880,-0.565
'0:06.039',-0.890,-0.510
'0:06.042',-0.940,-0.470
'0:06.044',-0.970,-0.465
'0:06.047',-0.960,-0.505
'0:06.050',-0.950,-0.575
'0:06.053',-0.945,-0.580
'0:06.056',-0.935,-0.535
'0:06.058',-0.925,-0.460
'0:06.061',-0.950,-0.420
'0:06.064',-0.935,-0.470
'0:06.067',-0.940,-0.520
'0:06.069',-0.920,-0.555
'0:06.072',-0.925,-0.540
'0:06.075',-0.970,-0.500
'0:06.078',-0.990,-0.505
'0:06.081',-1.015,-0.540
'0:06.083',-1.035,-0.575
'0:06.086',-1.075,-0.580
'0:06.089',-1.120,-0.540
'0:06.092',-1.120,-0.485
'0:06.094',-1.105,-0.430
'0:06.097',-1.025,-0.435
'0:06.100',-0.920,-0.425
'0:06.103',-0.755,-0.410
'0:06.106',-0.585,-0.330
'0:06.108',-0.415,-0.230
'0:06.111',-0.260,-0.155
'0:06.114',-0.105,-0.110
'0:06.117',0.040,-0.140
'0:06.119',0.205,-0.155
'0:06.122',0.390,-0.135
'0:06.125',0.530,-0.105
'0:06.128',0.645,-0.070
'0:06.131',0.710,-0.115
'0:06.133',0.735,-0.275
'0:06.136',0.735,-0.445
'0:06.139',0.705,-0.575
'0:06.142',0.635,-0.565
'0:06.144',0.555,-0.485
'0:06.147',0.460,-0.405
'0:06.150',0.325,-0.345
'0:06.153',0.125,-0.320
'0:06.156',-0.100,-0.335
'0:06.158',-0.370,-0.350
'0:06.161',-0.600,-0.385
'0:06.164',-0.765,-0.405
'0:06.167',-0.860,-0.475
'0:06.169',-0.865,-0.570
'0:06.172',-0.840,-0.635
'0:06.175',-0.800,-0.615
'0:06.178',-0.775,-0.550
'0:06.181',-0.785,-0.480
'0:06.183',-0.820,-0.445
'0:06.186',-0.880,-0.465
'0:06.189',-0.920,-0.530
'0:06.192',-0.930,-0.545
'0:06.194',-0.960,-0.515
'0:06.197',-0.990,-0.465
'0:06.200',-0.990,-0.465
'0:06.203',-1.015,-0.470
'0:06.206',-1.000,-0.520
'0:06.208',-0.990,-0.530
'0:06.211',-1.005,-0.525
'0:06.214',-1.010,-0.475
'0:06.217',-1.010,-0.485
'0:06.219',-1.015,-0.515
'0:06.222',-1.000,-0.545
'0:06.225',-0.960,-0.520
'0:06.228',-0.950,-0.455
'0:06.231',-0.955,-0.405
'0:06.233',-0.950,-0.435
'0:06.236',-0.960,-0.485
'0:06.239',-0.960,-0.540
'0:06.242',-0.970,-0.540
'0:06.244',-1.000,-0.490
'0:06.247',-1.005,-0.440
'0:06.250',-1.010,-0.440
'0:06.253',-0.995,-0.485
'0:06.256',-0.980,-0.510
'0:06.258',-0.940,-0.485
'0:06.261',-0.955,-0.430
'0:06.264',-0.950,-0.380
'0:06.267',-0.970,-0.380
'0:06.269',-0.980,-0.405
'0:06.272',-0.960,-0.490
'0:06.275',-0.960,-0.510
'0:06.278',-0.940,-0.450
'0:06.281',-0.950,-0.415
'0:06.283',-0.975,-0.385
'0:06.286',-0.970,-0.420
'0:06.289',-0.955,-0.455
'0:06.292',-0.925,-0.460
'0:06.294',-0.925,-0.410
'0:06.297',-0.920,-0.335
'0:06.300',-0.935,-0.295
'0:06.303',-0.935,-0.330
'0:06.306',-0.940,-0.415
'0:06.308',-0.925,-0.460
'0:06.311',-0.935,-0.440
'0:06.314',-0.945,-0.385
'0:06.317',-0.950,-0.315
'0:06.319',-0.940,-0.305
'0:06.322',-0.930,-0.355
'0:06.325',-0.915,-0.385
'0:06.328',-0.885,-0.375
'0:06.331',-0.875,-0.315
'0:06.333',-0.885,-0.275
'0:06.336',-0.875,-0.270
'0:06.339',-0.890,-0.350
'0:06.342',-0.895,-0.390
'0:06.344',-0.890,-0.410
'0:06.347',-0.900,-0.370
'0:06.350',-0.910,-0.310
'0:06.353',-0.910,-0.290
'0:06.356',-0.895,-0.345
'0:06.358',-0.885,-0.380
'0:06.361',-0.845,-0.395
'0:06.364',-0.830,-0.340
'0:06.367',-0.845,-0.280
'0:06.369',-0.850,-0.275
'0:06.372',-0.850,-0.340
'0:06.375',-0.855,-0.405
'0:06.378',-0.835,-0.455
'0:06.381',-0.830,-0.415
'0:06.383',-0.840,-0.355
'0:06.386',-0.855,-0.325
'0:06.389',-0.865,-0.335
'0:06.392',-0.835,-0.390
'0:06.394',-0.820,-0.425
'0:06.397',-0.795,-0.415
'0:06.400',-0.810,-0.365
'0:06.403',-0.825,-0.365
'0:06.406',-0.830,-0.425
'0:06.408',-0.820,-0.480
'0:06.411',-0.805,-0.470
'0:06.414',-0.840,-0.450
'0:06.417',-0.850,-0.425
'0:06.419',-0.850,-0.430
'0:06.422',-0.840,-0.485
'0:06.425',-0.820,-0.500
'0:06.428',-0.810,-0.460
'0:06.431',-0.825,-0.410
'0:06.433',-0.835,-0.415
'0:06.436',-0.840,-0.450
'0:06.439',-0.850,-0.510
'0:06.442',-0.860,-0.535
'0:06.444',-0.855,-0.500
'0:06.447',-0.875,-0.465
'0:06.450',-0.880,-0.460
'0:06.453',-0.880,-0.480
'0:06.456',-0.860,-0.540
'0:06.458',-0.845,-0.530
'0:06.461',-0.845,-0.475
'0:06.464',-0.855,-0.415
'0:06.467',-0.865,-0.415
'0:06.469',-0.865,-0.480
'0:06.472',-0.865,-0.545
'0:06.475',-0.860,-0.555
'0:06.478',-0.870,-0.525
'0:06.481',-0.890,-0.480
'0:06.483',-0.910,-0.460
'0:06.486',-0.895,-0.510
'0:06.489',-0.890,-0.545
'0:06.492',-0.870,-0.515
'0:06.494',-0.880,-0.470
'0:06.497',-0.890,-0.435
'0:06.500',-0.895,-0.470
'0:06.503',-0.915,-0.510
'0:06.506',-0.900,-0.550
'0:06.508',-0.925,-0.535
'0:06.511',-0.935,-0.495
'0:06.514',-0.950,-0.485
'0:06.517',-0.960,-0.510
'0:06.519',-0.950,-0.560
'0:06.522',-0.960,-0.585
'0:06.525',-0.940,-0.520
'0:06.528',-0.940,-0.470
'0:06.531',-0.940,-0.450
'0:06.533',-0.945,-0.475
'0:06.536',-0.945,-0.540
'0:06.539',-0.950,-0.570
'0:06.542',-0.945,-0.560
'0:06.544',-0.960,-0.505
'0:06.547',-0.990,-0.490
'0:06.550',-0.980,-0.510
'0:06.553',-0.970,-0.560
'0:06.556',-0.950,-0.580
'0:06.558',-0.935,-0.550
'0:06.561',-0.935,-0.470
'0:06.564',-0.935,-0.450
'0:06.567',-0.955,-0.460
'0:06.569',-0.955,-0.525
'0:06.572',-0.950,-0.575
'0:06.575',-0.935,-0.565
'0:06.578',-0.940,-0.510
'0:06.581',-0.935,-0.475
'0:06.583',-0.940,-0.500
'0:06.586',-0.945,-0.535
'0:06.589',-0.905,-0.555
'0:06.592',-0.900,-0.525
'0:06.594',-0.900,-0.475
'0:06.597',-0.890,-0.465
'0:06.600',-0.875,-0.495
'0:06.603',-0.870,-0.540
'0:06.606',-0.850,-0.545
'0:06.608',-0.850,-0.520
'0:06.611',-0.850,-0.505
'0:06.614',-0.855,-0.520
'0:06.617',-0.855,-0.545
'0:06.619',-0.830,-0.540
'0:06.622',-0.800,-0.475
'0:06.625',-0.775,-0.435
'0:06.628',-0.750,-0.455
'0:06.631',-0.730,-0.485
'0:06.633',-0.675,-0.505
'0:06.636',-0.670,-0.455
'0:06.639',-0.670,-0.400
'0:06.642',-0.695,-0.380
'0:06.644',-0.685,-0.435
'0:06.647',-0.700,-0.470
'0:06.650',-0.680,-0.515
'0:06.653',-0.670,-0.455
'0:06.656',-0.680,-0.390
'0:06.658',-0.700,-0.360
'0:06.661',-0.690,-0.385
'0:06.664',-0.705,-0.440
'0:06.667',-0.705,-0.475
'0:06.669',-0.710,-0.435
'0:06.672',-0.720,-0.405
'0:06.675',-0.745,-0.405
'0:06.678',-0.755,-0.455
'0:06.681',-0.755,-0.510
'0:06.683',-0.755,-0.520
'0:06.686',-0.780,-0.490
'0:06.689',-0.810,-0.450
'0:06.692',-0.835,-0.470
'0:06.694',-0.840,-0.510
'0:06.697',-0.835,-0.550
'0:06.700',-0.835,-0.565
'0:06.703',-0.845,-0.505
'0:06.706',-0.860,-0.445
'0:06.708',-0.890,-0.440
'0:06.711',-0.905,-0.495
'0:06.714',-0.915,-0.565
'0:06.717',-0.910,-0.600
'0:06.719',-0.905,-0.545
'0:06.722',-0.920,-0.490
'0:06.725',-0.920,-0.430
'0:06.728',-0.900,-0.455
'0:06.731',-0.895,-0.510
'0:06.733',-0.890,-0.550
'0:06.736',-0.875,-0.535
'0:06.739',-0.895,-0.485
'0:06.742',-0.920,-0.470
'0:06.744',-0.945,-0.495
'0:06.747',-0.965,-0.555
'0:06.750',-0.985,-0.585
'0:06.753',-1.005,-0.565
'0:06.756',-1.055,-0.505
'0:06.758',-1.100,-0.465
'0:06.761',-1.105,-0.475
'0:06.764',-1.060,-0.515
'0:06.767',-0.985,-0.495
'0:06.769',-0.840,-0.410
'0:06.772',-0.690,-0.285
'0:06.775',-0.500,-0.210
'0:06.778',-0.300,-0.190
'0:06.781',-0.105,-0.185
'0:06.783',0.105,-0.175
'0:06.786',0.295,-0.120
'0:06.789',0.455,-0.045
'0:06.792',0.620,-0.055
'0:06.794',0.705,-0.125
'0:06.797',0.775,-0.280
'0:06.800',0.795,-0.400
'0:06.803',0.750,-0.475
'0:06.806',0.685,-0.475
'0:06.808',0.575,-0.465
'0:06.811',0.455,-0.440
'0:06.814',0.275,-0.390
'0:06.817',0.005,-0.320
'0:06.819',-0.310,-0.290
'0:06.822',-0.580,-0.340
'0:06.825',-0.775,-0.475
'0:06.828',-0.865,-0.585
'0:06.831',-0.845,-0.615
'0:06.833',-0.815,-0.600
'0:06.836',-0.790,-0.520
'0:06.839',-0.770,-0.475
'0:06.842',-0.780,-0.505
'0:06.844',-0.800,-0.545
'0:06.847',-0.845,-0.590
'0:06.850',-0.885,-0.555
'0:06.853',-0.935,-0.515
'0:06.856',-0.975,-0.475
'0:06.858',-0.975,-0.505
'0:06.861',-0.970,-0.540
'0:06.864',-0.945,-0.550
'0:06.867',-0.960,-0.510
'0:06.869',-0.965,-0.455
'0:06.872',-0.970,-0.445
'0:06.875',-0.985,-0.485
'0:06.878',-0.980,-0.550
'0:06.881',-0.985,-0.570
'0:06.883',-0.975,-0.535
'0:06.886',-0.965,-0.470
'0:06.889',-0.960,-0.425
'0:06.892',-0.960,-0.440
'0:06.894',-0.940,-0.485
'0:06.897',-0.930,-0.495
'0:06.900',-0.920,-0.475
'0:06.903',-0.920,-0.425
'0:06.906',-0.945,-0.395
'0:06.908',-0.955,-0.450
'0:06.911',-0.965,-0.510
'0:06.914',-0.950,-0.520
'0:06.917',-0.950,-0.495
'0:06.919',-0.955,-0.450
'0:06.922',-0.945,-0.390
'0:06.925',-0.950,-0.420
'0:06.928',-0.920,-0.455
'0:06.931',-0.905,-0.475
'0:06.933',-0.895,-0.445
'0:06.936',-0.900,-0.405
'0:06.939',-0.920,-0.400
'0:06.942',-0.940,-0.415
'0:06.944',-0.945,-0.470
'0:06.947',-0.935,-0.485
'0:06.950',-0.920,-0.435
'0:06.953',-0.920,-0.375
'0:06.956',-0.930,-0.350
'0:06.958',-0.935,-0.355
'0:06.961',-0.925,-0.395
'0:06.964',-0.900,-0.420
'0:06.967',-0.890,-0.375
'0:06.969',-0.890,-0.325
'0:06.972',-0.895,-0.300
'0:06.975',-0.915,-0.345
'0:06.978',-0.900,-0.400
'0:06.981',-0.895,-0.415
'0:06.983',-0.890,-0.390
'0:06.986',-0.900,-0.335
'0:06.989',-0.905,-0.300
'0:06.992',-0.890,-0.330
'0:06.994',-0.870,-0.365
'0:06.997',-0.850,-0.360
'0:07.000',-0.845,-0.330
'0:07.003',-0.860,-0.295
'0:07.006',-0.870,-0.295
'0:07.008',-0.885,-0.335
'0:07.011',-0.850,-0.400
'0:07.014',-0.855,-0.405
'0:07.017',-0.860,-0.355
'0:07.019',-0.850,-0.335
'0:07.022',-0.860,-0.330
'0:07.025',-0.850,-0.380
'0:07.028',-0.850,-0.400
'0:07.031',-0.815,-0.380
'0:07.033',-0.825,-0.330
'0:07.036',-0.830,-0.340
'0:07.039',-0.835,-0.375
'0:07.042',-0.840,-0.445
'0:07.044',-0.825,-0.455
'0:07.047',-0.815,-0.425
'0:07.050',-0.835,-0.395
'0:07.053',-0.825,-0.380
'0:07.056',-0.840,-0.395
'0:07.058',-0.815,-0.465
'0:07.061',-0.800,-0.495
'0:07.064',-0.775,-0.470
'0:07.067',-0.790,-0.410
'0:07.069',-0.810,-0.375
'0:07.072',-0.830,-0.410
'0:07.075',-0.860,-0.485
'0:07.078',-0.840,-0.565
'0:07.081',-0.815,-0.580
'0:07.083',-0.820,-0.510
'0:07.086',-0.860,-0.445
'0:07.089',-0.855,-0.410
'0:07.092',-0.850,-0.450
'0:07.094',-0.840,-0.515
'0:07.097',-0.810,-0.510
'0:07.100',-0.795,-0.490
'0:07.103',-0.825,-0.440
'0:07.106',-0.845,-0.430
'0:07.108',-0.865,-0.475
'0:07.111',-0.860,-0.545
'0:07.114',-0.840,-0.590
'0:07.117',-0.850,-0.570
'0:07.119',-0.845,-0.500
'0:07.122',-0.860,-0.455
'0:07.125',-0.865,-0.445
'0:07.128',-0.850,-0.505
'0:07.131',-0.830,-0.545
'0:07.133',-0.815,-0.535
'0:07.136',-0.825,-0.495
'0:07.139',-0.855,-0.455
'0:07.142',-0.875,-0.460
'0:07.144',-0.885,-0.535
'0:07.147',-0.885,-0.565
'0:07.150',-0.880,-0.595
'0:07.153',-0.880,-0.540
'0:07.156',-0.870,-0.475
'0:07.158',-0.885,-0.450
'0:07.161',-0.885,-0.490
'0:07.164',-0.875,-0.530
'0:07.167',-0.865,-0.555
'0:07.169',-0.870,-0.520
'0:07.172',-0.885,-0.480
'0:07.175',-0.910,-0.465
'0:07.178',-0.925,-0.490
'0:07.181',-0.935,-0.555
'0:07.183',-0.945,-0.610
'0:07.186',-0.940,-0.575
'0:07.189',-0.960,-0.515
'0:07.192',-0.955,-0.460
'0:07.194',-0.950,-0.465
'0:07.197',-0.935,-0.515
'0:07.200',-0.935,-0.565
'0:07.203',-0.930,-0.575
'0:07.206',-0.940,-0.535
'0:07.208',-0.975,-0.495
'0:07.211',-0.995,-0.505
'0:07.214',-0.980,-0.555
'0:07.217',-0.975,-0.600
'0:07.219',-0.960,-0.575
'0:07.222',-0.945,-0.520
'0:07.225',-0.955,-0.485
'0:07.228',-0.945,-0.490
'0:07.231',-0.940,-0.520
'0:07.233',-0.930,-0.565
'0:07.236',-0.905,-0.545
'0:07.239',-0.915,-0.490
'0:07.242',-0.940,-0.470
'0:07.244',-0.935,-0.520
'0:07.247',-0.940,-0.570
'0:07.250',-0.925,-0.590
'0:07.253',-0.920,-0.570
'0:07.256',-0.910,-0.505
'0:07.258',-0.915,-0.440
'0:07.261',-0.935,-0.455
'0:07.264',-0.920,-0.510
'0:07.267',-0.900,-0.575
'0:07.269',-0.875,-0.575
'0:07.272',-0.880,-0.540
'0:07.275',-0.865,-0.485
'0:07.278',-0.885,-0.485
'0:07.281',-0.885,-0.555
'0:07.283',-0.880,-0.580
'0:07.286',-0.875,-0.595
'0:07.289',-0.860,-0.540
'0:07.292',-0.845,-0.475
'0:07.294',-0.830,-0.485
'0:07.297',-0.815,-0.510
'0:07.300',-0.780,-0.540
'0:07.303',-0.755,-0.540
'0:07.306',-0.710,-0.490
'0:07.308',-0.720,-0.465
'0:07.311',-0.735,-0.440
'0:07.314',-0.730,-0.495
'0:07.317',-0.730,-0.545
'0:07.319',-0.695,-0.515
'0:07.322',-0.680,-0.460
'0:07.325',-0.690,-0.390
'0:07.328',-0.700,-0.375
'0:07.331',-0.690,-0.415
'0:07.333',-0.665,-0.480
'0:07.336',-0.670,-0.495
'0:07.339',-0.700,-0.470
'0:07.342',-0.725,-0.435
'0:07.344',-0.770,-0.440
'0:07.347',-0.770,-0.460
'0:07.350',-0.760,-0.520
'0:07.353',-0.755,-0.525
'0:07.356',-0.765,-0.470
'0:07.358',-0.750,-0.425
'0:07.361',-0.775,-0.445
'0:07.364',-0.800,-0.490
'0:07.367',-0.825,-0.555
'0:07.369',-0.845,-0.565
'0:07.372',-0.860,-0.535
'0:07.375',-0.880,-0.505
'0:07.378',-0.910,-0.500
'0:07.381',-0.910,-0.540
'0:07.383',-0.915,-0.600
'0:07.386',-0.905,-0.615
'0:07.389',-0.905,-0.550
'0:07.392',-0.910,-0.490
'0:07.394',-0.940,-0.455
'0:07.397',-0.940,-0.500
'0:07.400',-0.925,-0.575
'0:07.403',-0.915,-0.605
'0:07.406',-0.925,-0.580
'0:07.408',-0.925,-0.540
'0:07.411',-0.940,-0.535
'0:07.414',-0.940,-0.580
'0:07.417',-0.950,-0.610
'0:07.419',-0.945,-0.620
'0:07.422',-0.945,-0.570
'0:07.425',-0.980,-0.530
'0:07.428',-1.015,-0.530
'0:07.431',-1.040,-0.560
'0:07.433',-1.080,-0.610
'0:07.436',-1.095,-0.595
'0:07.439',-1.080,-0.535
'0:07.442',-1.020,-0.465
'0:07.444',-0.920,-0.425
'0:07.447',-0.765,-0.425
'0:07.450',-0.560,-0.405
'0:07.453',-0.350,-0.350
'0:07.456',-0.175,-0.245
'0:07.458',0.015,-0.135
'0:07.461',0.175,-0.085
'0:07.464',0.315,-0.105
'0:07.467',0.475,-0.140
'0:07.469',0.605,-0.195
'0:07.472',0.700,-0.225
'0:07.475',0.760,-0.270
'0:07.478',0.750,-0.335
'0:07.481',0.725,-0.470
'0:07.483',0.675,-0.600
'0:07.486',0.645,-0.620
'0:07.489',0.565,-0.560
'0:07.492',0.470,-0.425
'0:07.494',0.270,-0.300
'0:07.497',-0.005,-0.275
'0:07.500',-0.310,-0.370
'0:07.503',-0.555,-0.480
'0:07.506',-0.730,-0.550
'0:07.508',-0.850,-0.570
'0:07.511',-0.905,-0.565
'0:07.514',-0.865,-0.605
'0:07.517',-0.830,-0.630
'0:07.519',-0.780,-0.630
'0:07.522',-0.765,-0.585
'0:07.525',-0.770,-0.505
'0:07.528',-0.830,-0.465
'0:07.531',-0.905,-0.450
'0:07.533',-0.925,-0.520
'0:07.536',-0.950,-0.595
'0:07.539',-0.955,-0.605
'0:07.542',-0.975,-0.560
'0:07.544',-1.010,-0.525
'0:07.547',-1.020,-0.510
'0:07.550',-1.030,-0.540
'0:07.553',-1.015,-0.595
'0:07.556',-1.005,-0.590
'0:07.558',-1.000,-0.530
'0:07.561',-0.985,-0.470
'0:07.564',-0.990,-0.435
'0:07.567',-0.990,-0.475
'0:07.569',-0.980,-0.545
'0:07.572',-0.970,-0.575
'0:07.575',-0.980,-0.530
'0:07.578',-0.985,-0.465
'0:07.581',-0.990,-0.445
'0:07.583',-1.005,-0.495
'0:07.586',-0.985,-0.560
'0:07.589',-0.980,-0.575
'0:07.592',-0.965,-0.530
'0:07.594',-0.945,-0.445
'0:07.597',-0.970,-0.420
'0:07.600',-0.970,-0.440
'0:07.603',-0.960,-0.495
'0:07.606',-0.945,-0.525
'0:07.608',-0.965,-0.495
'0:07.611',-0.960,-0.455
'0:07.614',-0.985,-0.425
'0:07.617',-0.995,-0.480
'0:07.619',-0.975,-0.535
'0:07.622',-0.960,-0.500
'0:07.625',-0.940,-0.465
'0:07.628',-0.945,-0.395
'0:07.631',-0.935,-0.390
'0:07.633',-0.935,-0.425
'0:07.636',-0.925,-0.465
'0:07.639',-0.905,-0.445
'0:07.642',-0.940,-0.415
'0:07.644',-0.950,-0.380
'0:07.647',-0.960,-0.430
'0:07.650',-0.975,-0.460
'0:07.653',-0.950,-0.465
'0:07.656',-0.935,-0.430
'0:07.658',-0.930,-0.365
'0:07.661',-0.920,-0.340
'0:07.664',-0.920,-0.345
'0:07.667',-0.910,-0.400
'0:07.669',-0.880,-0.440
'0:07.672',-0.870,-0.405
'0:07.675',-0.865,-0.365
'0:07.678',-0.905,-0.340
'0:07.681',-0.915,-0.355
'0:07.683',-0.925,-0.430
'0:07.686',-0.920,-0.465
'0:07.689',-0.890,-0.445
'0:07.692',-0.885,-0.395
'0:07.694',-0.875,-0.345
'0:07.697',-0.885,-0.345
'0:07.700',-0.870,-0.395
'0:07.703',-0.855,-0.445
'0:07.706',-0.845,-0.420
'0:07.708',-0.865,-0.390
'0:07.711',-0.890,-0.375
'0:07.714',-0.890,-0.410
'0:07.717',-0.880,-0.440
'0:07.719',-0.865,-0.495
'0:07.722',-0.860,-0.470
'0:07.725',-0.855,-0.395
'0:07.728',-0.850,-0.360
'0:07.731',-0.840,-0.390
'0:07.733',-0.830,-0.455
'0:07.736',-0.830,-0.515
'0:07.739',-0.815,-0.505
'0:07.742',-0.820,-0.480
'0:07.744',-0.840,-0.435
'0:07.747',-0.860,-0.450
'0:07.750',-0.865,-0.520
'0:07.753',-0.865,-0.570
'0:07.756',-0.840,-0.570
'0:07.758',-0.825,-0.520
'0:07.761',-0.825,-0.455
'0:07.764',-0.830,-0.445
'0:07.767',-0.840,-0.500
'0:07.769',-0.850,-0.560
'0:07.772',-0.840,-0.560
'0:07.775',-0.850,-0.540
'0:07.778',-0.865,-0.500
'0:07.781',-0.880,-0.500
'0:07.783',-0.885,-0.550
'0:07.786',-0.880,-0.610
'0:07.789',-0.865,-0.595
'0:07.792',-0.875,-0.545
'0:07.794',-0.880,-0.495
'0:07.797',-0.890,-0.485
'0:07.800',-0.870,-0.555
'0:07.803',-0.870,-0.590
'0:07.806',-0.855,-0.600
'0:07.808',-0.865,-0.545
'0:07.811',-0.885,-0.505
'0:07.814',-0.900,-0.530
'0:07.817',-0.910,-0.580
'0:07.819',-0.900,-0.630
'0:07.822',-0.880,-0.605
'0:07.825',-0.905,-0.540
'0:07.828',-0.905,-0.495
'0:07.831',-0.915,-0.530
'0:07.833',-0.900,-0.570
'0:07.836',-0.890,-0.600
'0:07.839',-0.910,-0.575
'0:07.842',-0.925,-0.550
'0:07.844',-0.940,-0.550
'0:07.847',-0.955,-0.595
'0:07.850',-0.950,-0.640
'0:07.853',-0.960,-0.635
'0:07.856',-0.940,-0.575
'0:07.858',-0.960,-0.520
'0:07.861',-0.965,-0.510
'0:07.864',-0.985,-0.550
'0:07.867',-0.950,-0.610
'0:07.869',-0.950,-0.600
'0:07.872',-0.955,-0.590
'0:07.875',-0.975,-0.535
'0:07.878',-0.985,-0.535
'0:07.881',-1.000,-0.580
'0:07.883',-1.000,-0.640
'0:07.886',-0.985,-0.675
'0:07.889',-0.985,-0.620
'0:07.892',-0.970,-0.550
'0:07.894',-0.985,-0.515
'0:07.897',-0.990,-0.550
'0:07.900',-0.975,-0.600
'0:07.903',-0.970,-0.620
'0:07.906',-0.960,-0.600
'0:07.908',-0.965,-0.555
'0:07.911',-0.980,-0.545
'0:07.914',-1.000,-0.585
'0:07.917',-1.010,-0.630
'0:07.919',-0.980,-0.665
'0:07.922',-0.975,-0.625
'0:07.925',-0.965,-0.565
'0:07.928',-0.955,-0.510
'0:07.931',-0.965,-0.525
'0:07.933',-0.950,-0.580
'0:07.936',-0.925,-0.635
'0:07.939',-0.920,-0.625
'0:07.942',-0.925,-0.565
'0:07.944',-0.940,-0.530
'0:07.947',-0.955,-0.550
'0:07.950',-0.940,-0.615
'0:07.953',-0.915,-0.630
'0:07.956',-0.895,-0.610
'0:07.958',-0.880,-0.550
'0:07.961',-0.875,-0.510
'0:07.964',-0.865,-0.530
'0:07.967',-0.885,-0.585
'0:07.969',-0.855,-0.605
'0:07.972',-0.840,-0.580
'0:07.975',-0.825,-0.540
'0:07.978',-0.830,-0.520
'0:07.981',-0.825,-0.555
'0:07.983',-0.800,-0.605
'0:07.986',-0.765,-0.615
'0:07.989',-0.740,-0.580
'0:07.992',-0.720,-0.500
'0:07.994',-0.700,-0.450
'0:07.997',-0.700,-0.455
'0:08.000',-0.695,-0.505
'0:08.003',-0.680,-0.525
'0:08.006',-0.675,-0.505
'0:08.008',-0.710,-0.460
'0:08.011',-0.740,-0.470
'0:08.014',-0.770,-0.520
'0:08.017',-0.780,-0.555
'0:08.019',-0.750,-0.560
'0:08.022',-0.745,-0.505
'0:08.025',-0.755,-0.480
'0:08.028',-0.770,-0.490
'0:08.031',-0.750,-0.530
'0:08.033',-0.745,-0.530
'0:08.036',-0.770,-0.515
'0:08.039',-0.810,-0.495
'0:08.042',-0.850,-0.515
'0:08.044',-0.875,-0.600
'0:08.047',-0.880,-0.650
'0:08.050',-0.890,-0.635
'0:08.053',-0.910,-0.585
'0:08.056',-0.925,-0.535
'0:08.058',-0.930,-0.535
'0:08.061',-0.905,-0.575
'0:08.064',-0.905,-0.605
'0:08.067',-0.890,-0.595
'0:08.069',-0.910,-0.540
'0:08.072',-0.920,-0.515
'0:08.075',-0.950,-0.535
'0:08.078',-0.960,-0.595
'0:08.081',-0.950,-0.640
'0:08.083',-0.940,-0.635
'0:08.086',-0.940,-0.600
'0:08.089',-0.960,-0.540
'0:08.092',-0.970,-0.550
'0:08.094',-0.960,-0.585
'0:08.097',-0.945,-0.620
'0:08.100',-0.960,-0.610
'0:08.103',-0.995,-0.565
'0:08.106',-1.045,-0.550
'0:08.108',-1.100,-0.555
'0:08.111',-1.155,-0.615
'0:08.114',-1.145,-0.645
'0:08.117',-1.100,-0.610
'0:08.119',-1.025,-0.515
'0:08.122',-0.895,-0.410
'0:08.125',-0.745,-0.320
'0:08.128',-0.565,-0.310
'0:08.131',-0.340,-0.315
'0:08.133',-0.140,-0.275
'0:08.136',0.055,-0.175
'0:08.139',0.220,-0.095
'0:08.142',0.360,-0.085
'0:08.144',0.485,-0.125
'0:08.147',0.615,-0.235
'0:08.150',0.715,-0.335
'0:08.153',0.760,-0.390
'0:08.156',0.750,-0.435
'0:08.158',0.710,-0.510
'0:08.161',0.665,-0.565
'0:08.164',0.605,-0.585
'0:08.167',0.535,-0.535
'0:08.169',0.390,-0.405
'0:08.172',0.150,-0.290
'0:08.175',-0.150,-0.280
'0:08.178',-0.450,-0.395
'0:08.181',-0.680,-0.555
'0:08.183',-0.830,-0.670
'0:08.186',-0.875,-0.695
'0:08.189',-0.870,-0.635
'0:08.192',-0.830,-0.545
'0:08.194',-0.795,-0.530
'0:08.197',-0.765,-0.550
'0:08.200',-0.750,-0.585
'0:08.203',-0.785,-0.605
'0:08.206',-0.835,-0.570
'0:08.208',-0.905,-0.535
'0:08.211',-0.960,-0.540
'0:08.214',-0.990,-0.595
'0:08.217',-1.010,-0.630
'0:08.219',-1.010,-0.640
'0:08.222',-1.010,-0.585
'0:08.225',-1.005,-0.520
'0:08.228',-1.020,-0.520
'0:08.231',-1.010,-0.560
'0:08.233',-0.995,-0.590
'0:08.236',-0.985,-0.555
'0:08.239',-0.980,-0.515
'0:08.242',-0.990,-0.485
'0:08.244',-0.990,-0.515
'0:08.247',-1.005,-0.590
'0:08.250',-1.000,-0.635
'0:08.253',-1.005,-0.615
'0:08.256',-1.005,-0.550
'0:08.258',-1.000,-0.485
'0:08.261',-1.010,-0.500
'0:08.264',-1.010,-0.540
'0:08.267',-0.990,-0.580
'0:08.269',-0.970,-0.570
'0:08.272',-0.965,-0.515
'0:08.275',-0.980,-0.480
'0:08.278',-1.000,-0.480
'0:08.281',-1.000,-0.530
'0:08.283',-0.985,-0.585
'0:08.286',-0.985,-0.595
'0:08.289',-0.965,-0.535
'0:08.292',-0.960,-0.465
'0:08.294',-0.975,-0.430
'0:08.297',-0.970,-0.470
'0:08.300',-0.965,-0.505
'0:08.303',-0.955,-0.545
'0:08.306',-0.945,-0.520
'0:08.308',-0.955,-0.450
'0:08.311',-0.975,-0.410
'0:08.314',-0.975,-0.450
'0:08.317',-0.970,-0.495
'0:08.319',-0.960,-0.535
'0:08.322',-0.950,-0.515
'0:08.325',-0.940,-0.430
'0:08.328',-0.950,-0.375
'0:08.331',-0.950,-0.360
'0:08.333',-0.935,-0.410
'0:08.336',-0.905,-0.480
'0:08.339',-0.905,-0.465
'0:08.342',-0.905,-0.410
'0:08.344',-0.920,-0.380
'0:08.347',-0.940,-0.375
'0:08.350',-0.925,-0.420
'0:08.353',-0.925,-0.475
'0:08.356',-0.900,-0.450
'0:08.358',-0.905,-0.385
'0:08.361',-0.910,-0.335
'0:08.364',-0.900,-0.340
'0:08.367',-0.895,-0.400
'0:08.369',-0.880,-0.430
'0:08.372',-0.885,-0.440
'0:08.375',-0.890,-0.400
'0:08.378',-0.910,-0.385
'0:08.381',-0.920,-0.410
'0:08.383',-0.895,-0.470
'0:08.386',-0.900,-0.500
'0:08.389',-0.870,-0.480
'0:08.392',-0.865,-0.400
'0:08.394',-0.870,-0.370
'0:08.397',-0.885,-0.380
'0:08.400',-0.855,-0.430
'0:08.403',-0.840,-0.495
'0:08.406',-0.840,-0.510
'0:08.408',-0.845,-0.450
'0:08.411',-0.855,-0.425
'0:08.414',-0.890,-0.450
'0:08.417',-0.885,-0.510
'0:08.419',-0.875,-0.545
'0:08.422',-0.875,-0.540
'0:08.425',-0.860,-0.490
'0:08.428',-0.860,-0.435
'0:08.431',-0.860,-0.435
'0:08.433',-0.845,-0.495
'0:08.436',-0.850,-0.560
'0:08.439',-0.855,-0.535
'0:08.442',-0.850,-0.520
'0:08.444',-0.880,-0.485
'0:08.447',-0.890,-0.500
'0:08.450',-0.905,-0.565
'0:08.453',-0.890,-0.595
'0:08.456',-0.890,-0.575
'0:08.458',-0.875,-0.535
'0:08.461',-0.885,-0.500
'0:08.464',-0.895,-0.500
'0:08.467',-0.890,-0.560
'0:08.469',-0.865,-0.590
'0:08.472',-0.890,-0.580
'0:08.475',-0.900,-0.545
'0:08.478',-0.900,-0.495
'0:08.481',-0.915,-0.520
'0:08.483',-0.910,-0.585
'0:08.486',-0.910,-0.635
'0:08.489',-0.905,-0.635
'0:08.492',-0.880,-0.555
'0:08.494',-0.895,-0.505
'0:08.497',-0.925,-0.475
'0:08.500',-0.930,-0.515
'0:08.503',-0.925,-0.575
'0:08.506',-0.915,-0.620
'0:08.508',-0.900,-0.605
'0:08.511',-0.915,-0.555
'0:08.514',-0.935,-0.555
'0:08.517',-0.930,-0.580
'0:08.519',-0.940,-0.630
'0:08.522',-0.930,-0.625
'0:08.525',-0.930,-0.580
'0:08.528',-0.930,-0.525
'0:08.531',-0.945,-0.485
'0:08.533',-0.950,-0.535
'0:08.536',-0.955,-0.605
'0:08.539',-0.950,-0.640
'0:08.542',-0.955,-0.615
'0:08.544',-0.975,-0.570
'0:08.547',-0.995,-0.555
'0:08.550',-1.005,-0.600
'0:08.553',-1.000,-0.640
'0:08.556',-0.990,-0.660
'0:08.558',-0.980,-0.625
'0:08.561',-0.990,-0.550
'0:08.564',-0.990,-0.530
'0:08.567',-0.975,-0.575
'0:08.569',-0.985,-0.625
'0:08.572',-0.995,-0.640
'0:08.575',-0.975,-0.610
'0:08.578',-1.000,-0.570
'0:08.581',-1.015,-0.565
'0:08.583',-1.015,-0.630
'0:08.586',-1.000,-0.665
'0:08.589',-0.970,-0.645
'0:08.592',-0.955,-0.600
'0:08.594',-0.955,-0.565
'0:08.597',-0.965,-0.545
'0:08.600',-0.960,-0.595
'0:08.603',-0.950,-0.660
'0:08.606',-0.935,-0.660
'0:08.608',-0.930,-0.630
'0:08.611',-0.965,-0.585
'0:08.614',-0.975,-0.570
'0:08.617',-0.975,-0.620
'0:08.619',-0.970,-0.670
'0:08.622',-0.965,-0.670
'0:08.625',-0.955,-0.595
'0:08.628',-0.950,-0.560
'0:08.631',-0.945,-0.555
'0:08.633',-0.930,-0.580
'0:08.636',-0.920,-0.620
'0:08.639',-0.895,-0.620
'0:08.642',-0.905,-0.590
'0:08.644',-0.915,-0.565
'0:08.647',-0.915,-0.595
'0:08.650',-0.910,-0.635
'0:08.653',-0.905,-0.655
'0:08.656',-0.895,-0.615
'0:08.658',-0.850,-0.540
'0:08.661',-0.830,-0.520
'0:08.664',-0.805,-0.545
'0:08.667',-0.775,-0.575
'0:08.669',-0.740,-0.620
'0:08.672',-0.720,-0.580
'0:08.675',-0.730,-0.515
'0:08.678',-0.740,-0.460
'0:08.681',-0.730,-0.490
'0:08.683',-0.745,-0.545
'0:08.686',-0.725,-0.575
'0:08.689',-0.710,-0.570
'0:08.692',-0.690,-0.505
'0:08.694',-0.695,-0.460
'0:08.697',-0.725,-0.430
'0:08.700',-0.720,-0.475
'0:08.703',-0.720,-0.545
'0:08.706',-0.725,-0.575
'0:08.708',-0.735,-0.535
'0:08.711',-0.760,-0.475
'0:08.714',-0.790,-0.480
'0:08.717',-0.800,-0.515
'0:08.719',-0.790,-0.580
'0:08.722',-0.790,-0.630
'0:08.725',-0.780,-0.585
'0:08.728',-0.795,-0.515
'0:08.731',-0.835,-0.470
'0:08.733',-0.845,-0.495
'0:08.736',-0.865,-0.570
'0:08.739',-0.875,-0.660
'0:08.742',-0.870,-0.670
'0:08.744',-0.885,-0.625
'0:08.747',-0.915,-0.560
'0:08.750',-0.940,-0.550
'0:08.753',-0.950,-0.585
'0:08.756',-0.940,-0.645
'0:08.758',-0.920,-0.630
'0:08.761',-0.915,-0.585
'0:08.764',-0.930,-0.545
'0:08.767',-0.945,-0.525
'0:08.769',-0.940,-0.585
'0:08.772',-0.945,-0.635
'0:08.775',-0.940,-0.640
'0:08.778',-0.940,-0.620
'0:08.781',-0.960,-0.580
'0:08.783',-0.960,-0.565
'0:08.786',-1.000,-0.625
'0:08.789',-0.995,-0.665
'0:08.792',-1.000,-0.660
'0:08.794',-1.005,-0.590
'0:08.797',-1.035,-0.540
'0:08.800',-1.090,-0.515
'0:08.803',-1.145,-0.560
'0:08.806',-1.175,-0.635
'0:08.808',-1.150,-0.660
'0:08.811',-1.070,-0.610
'0:08.814',-0.965,-0.500
'0:08.817',-0.835,-0.395
'0:08.819',-0.665,-0.345
'0:08.822',-0.460,-0.330
'0:08.825',-0.220,-0.310
'0:08.828',-0.025,-0.235
'0:08.831',0.165,-0.125
'0:08.833',0.310,-0.090
'0:08.836',0.465,-0.120
'0:08.839',0.590,-0.220
'0:08.842',0.690,-0.330
'0:08.844',0.730,-0.420
'0:08.847',0.725,-0.495
'0:08.850',0.685,-0.545
'0:08.853',0.605,-0.590
'0:08.856',0.530,-0.595
'0:08.858',0.425,-0.500
'0:08.861',0.240,-0.385
'0:08.864',-0.040,-0.285
'0:08.867',-0.335,-0.330
'0:08.869',-0.590,-0.470
'0:08.872',-0.785,-0.605
'0:08.875',-0.870,-0.680
'0:08.878',-0.895,-0.680
'0:08.881',-0.875,-0.635
'0:08.883',-0.835,-0.595
'0:08.886',-0.820,-0.610
'0:08.889',-0.825,-0.640
'0:08.892',-0.850,-0.630
'0:08.894',-0.885,-0.565
'0:08.897',-0.930,-0.540
'0:08.900',-0.970,-0.535
'0:08.903',-0.990,-0.590
'0:08.906',-1.010,-0.645
'0:08.908',-1.005,-0.645
'0:08.911',-1.010,-0.615
'0:08.914',-1.020,-0.565
'0:08.917',-1.050,-0.565
'0:08.919',-1.040,-0.615
'0:08.922',-1.030,-0.655
'0:08.925',-1.020,-0.645
'0:08.928',-0.995,-0.575
'0:08.931',-1.000,-0.500
'0:08.933',-1.000,-0.485
'0:08.936',-1.010,-0.530
'0:08.939',-1.010,-0.600
'0:08.942',-1.000,-0.640
'0:08.944',-0.995,-0.615
'0:08.947',-1.025,-0.575
'0:08.950',-1.040,-0.535
'0:08.953',-1.035,-0.550
'0:08.956',-1.030,-0.600
'0:08.958',-1.000,-0.620
'0:08.961',-0.985,-0.585
'0:08.964',-0.990,-0.515
'0:08.967',-0.995,-0.480
'0:08.969',-1.010,-0.490
'0:08.972',-0.995,-0.560
'0:08.975',-0.990,-0.590
'0:08.978',-0.985,-0.575
'0:08.981',-1.000,-0.530
'0:08.983',-1.010,-0.500
'0:08.986',-1.015,-0.515
'0:08.989',-1.020,-0.540
'0:08.992',-1.005,-0.560
'0:08.994',-0.980,-0.525
'0:08.997',-0.965,-0.445
'0:09.000',-0.965,-0.420
'0:09.003',-0.970,-0.440
'0:09.006',-0.975,-0.490
'0:09.008',-0.965,-0.535
'0:09.011',-0.975,-0.530
'0:09.014',-0.980,-0.480
'0:09.017',-0.980,-0.430
'0:09.019',-0.995,-0.450
'0:09.022',-0.980,-0.485
'0:09.025',-0.970,-0.505
'0:09.028',-0.940,-0.475
'0:09.031',-0.940,-0.410
'0:09.033',-0.935,-0.375
'0:09.036',-0.965,-0.395
'0:09.039',-0.960,-0.460
'0:09.042',-0.940,-0.490
'0:09.044',-0.935,-0.455
'0:09.047',-0.930,-0.410
'0:09.050',-0.950,-0.405
'0:09.053',-0.950,-0.430
'0:09.056',-0.955,-0.490
'0:09.058',-0.930,-0.485
'0:09.061',-0.900,-0.450
'0:09.064',-0.905,-0.370
'0:09.067',-0.905,-0.360
'0:09.069',-0.910,-0.400
'0:09.072',-0.915,-0.470
'0:09.075',-0.910,-0.510
'0:09.078',-0.900,-0.490
'0:09.081',-0.890,-0.460
'0:09.083',-0.905,-0.430
'0:09.086',-0.925,-0.450
'0:09.089',-0.920,-0.525
'0:09.092',-0.890,-0.550
'0:09.094',-0.890,-0.515
'0:09.097',-0.870,-0.450
'0:09.100',-0.865,-0.410
'0:09.103',-0.875,-0.420
'0:09.106',-0.890,-0.485
'0:09.108',-0.885,-0.555
'0:09.111',-0.880,-0.600
'0:09.114',-0.885,-0.570
'0:09.117',-0.885,-0.535
'0:09.119',-0.895,-0.515
'0:09.122',-0.910,-0.535
'0:09.125',-0.905,-0.600
'0:09.128',-0.890,-0.610
'0:09.131',-0.880,-0.600
'0:09.133',-0.885,-0.540
'0:09.136',-0.895,-0.495
'0:09.139',-0.910,-0.530
'0:09.142',-0.910,-0.610
'0:09.144',-0.910,-0.665
'0:09.147',-0.925,-0.670
'0:09.150',-0.920,-0.625
'0:09.153',-0.925,-0.575
'0:09.156',-0.960,-0.560
'0:09.158',-0.940,-0.600
'0:09.161',-0.920,-0.665
'0:09.164',-0.900,-0.660
'0:09.167',-0.890,-0.610
'0:09.169',-0.925,-0.555
'0:09.172',-0.925,-0.540
'0:09.175',-0.935,-0.595
'0:09.178',-0.940,-0.660
'0:09.181',-0.930,-0.695
'0:09.183',-0.925,-0.665
'0:09.186',-0.940,-0.600
'0:09.189',-0.955,-0.575
'0:09.192',-0.965,-0.590
'0:09.194',-0.945,-0.630
'0:09.197',-0.915,-0.660
'0:09.200',-0.920,-0.615
'0:09.203',-0.915,-0.560
'0:09.206',-0.940,-0.535
'0:09.208',-0.950,-0.570
'0:09.211',-0.960,-0.640
'0:09.214',-0.960,-0.695
'0:09.217',-0.950,-0.695
'0:09.219',-0.975,-0.635
'0:09.222',-1.000,-0.565
'0:09.225',-1.020,-0.550
'0:09.228',-0.995,-0.620
'0:09.231',-0.975,-0.645
'0:09.233',-0.955,-0.665
'0:09.236',-0.955,-0.625
'0:09.239',-0.985,-0.560
'0:09.242',-1.005,-0.580
'0:09.244',-1.010,-0.645
'0:09.247',-1.020,-0.690
'0:09.250',-1.010,-0.710
'0:09.253',-1.025,-0.640
'0:09.256',-1.025,-0.605
'0:09.258',-1.025,-0.595
'0:09.261',-1.035,-0.635
'0:09.264',-1.005,-0.665
'0:09.267',-0.990,-0.645
'0:09.269',-1.000,-0.605
'0:09.272',-1.010,-0.585
'0:09.275',-1.015,-0.590
'0:09.278',-1.030,-0.650
'0:09.281',-1.020,-0.710
'0:09.283',-1.005,-0.695
'0:09.286',-1.000,-0.625
'0:09.289',-1.010,-0.585
'0:09.292',-1.025,-0.570
'0:09.294',-1.015,-0.610
'0:09.297',-0.990,-0.655
'0:09.300',-0.965,-0.680
'0:09.303',-0.965,-0.640
'0:09.306',-0.965,-0.565
'0:09.308',-1.005,-0.545
'0:09.311',-1.000,-0.585
'0:09.314',-1.000,-0.650
'0:09.317',-0.990,-0.700
'0:09.319',-1.005,-0.690
'0:09.322',-0.980,-0.625
'0:09.325',-0.990,-0.585
'0:09.328',-0.990,-0.600
'0:09.331',-0.960,-0.620
'0:09.333',-0.930,-0.645
'0:09.336',-0.915,-0.610
'0:09.339',-0.920,-0.580
'0:09.342',-0.950,-0.555
'0:09.344',-0.935,-0.605
'0:09.347',-0.930,-0.675
'0:09.350',-0.925,-0.715
'0:09.353',-0.910,-0.700
'0:09.356',-0.900,-0.620
'0:09.358',-0.890,-0.545
'0:09.361',-0.865,-0.545
'0:09.364',-0.825,-0.585
'0:09.367',-0.790,-0.630
'0:09.369',-0.775,-0.620
'0:09.372',-0.755,-0.580
'0:09.375',-0.755,-0.535
'0:09.378',-0.750,-0.530
'0:09.381',-0.755,-0.585
'0:09.383',-0.750,-0.610
'0:09.386',-0.750,-0.575
'0:09.389',-0.765,-0.525
'0:09.392',-0.770,-0.490
'0:09.394',-0.760,-0.510
'0:09.397',-0.750,-0.565
'0:09.400',-0.755,-0.600
'0:09.403',-0.760,-0.580
'0:09.406',-0.780,-0.525
'0:09.408',-0.795,-0.485
'0:09.411',-0.810,-0.510
'0:09.414',-0.835,-0.590
'0:09.417',-0.825,-0.640
'0:09.419',-0.820,-0.650
'0:09.422',-0.825,-0.595
'0:09.425',-0.850,-0.545
'0:09.428',-0.880,-0.545
'0:09.431',-0.890,-0.610
'0:09.433',-0.900,-0.645
'0:09.436',-0.895,-0.665
'0:09.439',-0.930,-0.605
'0:09.442',-0.945,-0.585
'0:09.444',-0.980,-0.600
'0:09.447',-0.980,-0.645
'0:09.450',-0.990,-0.690
'0:09.453',-0.980,-0.670
'0:09.456',-0.980,-0.615
'0:09.458',-1.005,-0.575
'0:09.461',-0.995,-0.600
'0:09.464',-0.985,-0.660
'0:09.467',-0.960,-0.655
'0:09.469',-0.930,-0.645
'0:09.472',-0.955,-0.580
'0:09.475',-0.975,-0.580
'0:09.478',-0.995,-0.610
'0:09.481',-0.995,-0.695
'0:09.483',-1.000,-0.725
'0:09.486',-1.010,-0.700
'0:09.489',-1.065,-0.630
'0:09.492',-1.100,-0.575
'0:09.494',-1.150,-0.590
'0:09.497',-1.175,-0.635
'0:09.500',-1.185,-0.690
'0:09.503',-1.165,-0.685
'0:09.506',-1.110,-0.615
'0:09.508',-1.040,-0.520
'0:09.511',-0.925,-0.435
'0:09.514',-0.780,-0.435
'0:09.517',-0.575,-0.440
'0:09.519',-0.380,-0.405
'0:09.522',-0.185,-0.320
'0:09.525',-0.005,-0.220
'0:09.528',0.145,-0.140
'0:09.531',0.310,-0.165
'0:09.533',0.480,-0.215
'0:09.536',0.595,-0.305
'0:09.539',0.685,-0.360
'0:09.542',0.695,-0.410
'0:09.544',0.695,-0.495
'0:09.547',0.655,-0.590
'0:09.550',0.585,-0.660
'0:09.553',0.530,-0.670
'0:09.556',0.445,-0.595
'0:09.558',0.290,-0.450
'0:09.561',0.060,-0.345
'0:09.564',-0.240,-0.350
'0:09.567',-0.515,-0.460
'0:09.569',-0.725,-0.585
'0:09.572',-0.855,-0.680
'0:09.575',-0.915,-0.695
'0:09.578',-0.915,-0.675
'0:09.581',-0.905,-0.675
'0:09.583',-0.865,-0.705
'0:09.586',-0.840,-0.700
'0:09.589',-0.845,-0.665
'0:09.592',-0.890,-0.610
'0:09.594',-0.940,-0.575
'0:09.597',-0.995,-0.595
'0:09.600',-1.020,-0.650
'0:09.603',-1.035,-0.685
'0:09.606',-1.035,-0.670
'0:09.608',-1.045,-0.595
'0:09.611',-1.065,-0.585
'0:09.614',-1.085,-0.630
'0:09.617',-1.085,-0.675
'0:09.619',-1.070,-0.730
'0:09.622',-1.065,-0.695
'0:09.625',-1.050,-0.630
'0:09.628',-1.055,-0.565
'0:09.631',-1.060,-0.575
'0:09.633',-1.030,-0.620
'0:09.636',-1.025,-0.635
'0:09.639',-1.025,-0.605
'0:09.642',-1.035,-0.570
'0:09.644',-1.060,-0.575
'0:09.647',-1.070,-0.640
'0:09.650',-1.055,-0.670
'0:09.653',-1.055,-0.670
'0:09.656',-1.055,-0.610
'0:09.658',-1.055,-0.560
'0:09.661',-1.050,-0.560
'0:09.664',-1.040,-0.595
'0:09.667',-1.020,-0.625
'0:09.669',-1.020,-0.600
'0:09.672',-1.010,-0.550
'0:09.675',-1.020,-0.545
'0:09.678',-1.030,-0.565
'0:09.681',-1.025,-0.620
'0:09.683',-1.025,-0.635
'0:09.686',-1.025,-0.600
'0:09.689',-1.030,-0.540
'0:09.692',-1.025,-0.495
'0:09.694',-1.010,-0.510
'0:09.697',-1.000,-0.530
'0:09.700',-0.975,-0.560
'0:09.703',-0.970,-0.535
'0:09.706',-0.985,-0.480
'0:09.708',-1.005,-0.455
'0:09.711',-1.025,-0.500
'0:09.714',-1.005,-0.550
'0:09.717',-1.010,-0.575
'0:09.719',-0.995,-0.555
'0:09.722',-0.995,-0.485
'0:09.725',-1.000,-0.435
'0:09.728',-0.985,-0.460
'0:09.731',-0.965,-0.505
'0:09.733',-0.955,-0.520
'0:09.736',-0.950,-0.510
'0:09.739',-0.950,-0.435
'0:09.742',-0.960,-0.410
'0:09.744',-0.970,-0.450
'0:09.747',-0.980,-0.515
'0:09.750',-0.970,-0.555
'0:09.753',-0.970,-0.545
'0:09.756',-0.975,-0.500
'0:09.758',-0.970,-0.425
'0:09.761',-0.960,-0.425
'0:09.764',-0.950,-0.450
'0:09.767',-0.935,-0.510
'0:09.769',-0.905,-0.535
'0:09.772',-0.905,-0.510
'0:09.775',-0.910,-0.460
'0:09.778',-0.935,-0.465
'0:09.781',-0.935,-0.515
'0:09.783',-0.960,-0.565
'0:09.786',-0.940,-0.580
'0:09.789',-0.930,-0.550
'0:09.792',-0.925,-0.485
'0:09.794',-0.920,-0.465
'0:09.797',-0.930,-0.505
'0:09.800',-0.890,-0.565
'0:09.803',-0.880,-0.600
'0:09.806',-0.880,-0.580
'0:09.808',-0.895,-0.520
'0:09.811',-0.910,-0.530
'0:09.814',-0.915,-0.570
'0:09.817',-0.940,-0.635
'0:09.819',-0.935,-0.685
'0:09.822',-0.920,-0.665
'0:09.825',-0.905,-0.595
'0:09.828',-0.920,-0.545
'0:09.831',-0.930,-0.535
'0:09.833',-0.925,-0.570
'0:09.836',-0.915,-0.660
'0:09.839',-0.920,-0.660
'0:09.842',-0.920,-0.620
'0:09.844',-0.935,-0.575
'0:09.847',-0.950,-0.595
'0:09.850',-0.985,-0.650
'0:09.853',-0.965,-0.705
'0:09.856',-0.940,-0.695
'0:09.858',-0.940,-0.640
'0:09.861',-0.930,-0.585
'0:09.864',-0.940,-0.570
'0:09.867',-0.925,-0.620
'0:09.869',-0.925,-0.670
'0:09.872',-0.920,-0.675
'0:09.875',-0.925,-0.645
'0:09.878',-0.940,-0.610
'0:09.881',-0.955,-0.630
'0:09.883',-0.965,-0.675
'0:09.886',-0.945,-0.695
'0:09.889',-0.950,-0.695
'0:09.892',-0.955,-0.615
'0:09.894',-0.965,-0.585
'0:09.897',-0.975,-0.595
'0:09.900',-0.975,-0.630
'0:09.903',-0.955,-0.690
'0:09.906',-0.945,-0.695
'0:09.908',-0.945,-0.635
'0:09.911',-0.985,-0.610
'0:09.914',-1.005,-0.605
'0:09.917',-1.020,-0.645
'0:09.919',-1.010,-0.730
'0:09.922',-1.015,-0.725
'0:09.925',-1.000,-0.685
'0:09.928',-1.010,-0.615
'0:09.931',-1.025,-0.590
'0:09.933',-1.025,-0.650
'0:09.936',-1.020,-0.705
'0:09.939',-1.020,-0.730
'0:09.942',-1.025,-0.700
'0:09.944',-1.045,-0.670
'0:09.947',-1.060,-0.665
'0:09.950',-1.075,-0.700
'0:09.953',-1.055,-0.765
'0:09.956',-1.035,-0.765
'0:09.958',-1.035,-0.700
'0:09.961',-1.040,-0.620
'0:09.964',-1.045,-0.610
'0:09.967',-1.040,-0.635
'0:09.969',-1.025,-0.695
'0:09.972',-1.020,-0.730
'0:09.975',-1.020,-0.705
'0:09.978',-1.030,-0.650
'0:09.981',-1.045,-0.630
'0:09.983',-1.060,-0.655
'0:09.986',-1.045,-0.715
'0:09.989',-1.035,-0.725
'0:09.992',-1.005,-0.685
'0:09.994',-1.000,-0.625
'0:09.997',-1.010,-0.590
'0:10.000',-0.995,-0.625
'0:10.003',-0.985,-0.685
'0:10.006',-0.985,-0.705
'0:10.008',-0.990,-0.670
'0:10.011',-1.000,-0.635
'0:10.014',-1.020,-0.625
'0:10.017',-1.035,-0.665
'0:10.019',-1.030,-0.720
'0:10.022',-1.010,-0.750
'0:10.025',-0.965,-0.715
'0:10.028',-0.960,-0.625
'0:10.031',-0.970,-0.590
'0:10.033',-0.950,-0.600
'0:10.036',-0.930,-0.670
'0:10.039',-0.910,-0.725
'0:10.042',-0.900,-0.685
'0:10.044',-0.915,-0.650
'0:10.047',-0.915,-0.610
'0:10.050',-0.915,-0.630
'0:10.053',-0.890,-0.695
'0:10.056',-0.855,-0.705
'0:10.058',-0.820,-0.670
'0:10.061',-0.800,-0.600
'0:10.064',-0.780,-0.580
'0:10.067',-0.780,-0.590
'0:10.069',-0.775,-0.630
'0:10.072',-0.735,-0.625
'0:10.075',-0.730,-0.575
'0:10.078',-0.750,-0.525
'0:10.081',-0.765,-0.540
'0:10.083',-0.785,-0.605
'0:10.086',-0.790,-0.645
'0:10.089',-0.790,-0.655
'0:10.092',-0.790,-0.585
'0:10.094',-0.810,-0.535
'0:10.097',-0.815,-0.510
'0:10.100',-0.820,-0.555
'0:10.103',-0.810,-0.625
'0:10.106',-0.795,-0.650
'0:10.108',-0.800,-0.625
'0:10.111',-0.825,-0.575
'0:10.114',-0.865,-0.565
'0:10.117',-0.890,-0.610
'0:10.119',-0.905,-0.690
'0:10.122',-0.920,-0.735
'0:10.125',-0.925,-0.710
'0:10.128',-0.945,-0.645
'0:10.131',-0.955,-0.610
'0:10.133',-0.955,-0.605
'0:10.136',-0.975,-0.650
'0:10.139',-0.960,-0.705
'0:10.142',-0.975,-0.680
'0:10.144',-1.000,-0.650
'0:10.147',-1.010,-0.635
'0:10.150',-1.025,-0.625
'0:10.153',-1.035,-0.695
'0:10.156',-1.030,-0.745
'0:10.158',-1.010,-0.720
'0:10.161',-0.990,-0.670
'0:10.164',-0.990,-0.595
'0:10.167',-1.005,-0.570
'0:10.169',-1.005,-0.630
'0:10.172',-0.990,-0.710
'0:10.175',-0.990,-0.740
'0:10.178',-1.005,-0.690
'0:10.181',-1.040,-0.640
'0:10.183',-1.075,-0.630
'0:10.186',-1.125,-0.660
'0:10.189',-1.155,-0.715
'0:10.192',-1.170,-0.740
'0:10.194',-1.185,-0.700
'0:10.197',-1.185,-0.610
'0:10.200',-1.150,-0.560
'0:10.203',-1.085,-0.535
'0:10.206',-0.945,-0.535
'0:10.208',-0.775,-0.525
'0:10.211',-0.590,-0.475
'0:10.214',-0.395,-0.365
'0:10.217',-0.230,-0.270
'0:10.219',-0.075,-0.245
'0:10.222',0.085,-0.245
'0:10.225',0.220,-0.295
'0:10.228',0.405,-0.295
'0:10.231',0.535,-0.270
'0:10.233',0.615,-0.260
'0:10.236',0.665,-0.340
'0:10.239',0.675,-0.480
'0:10.242',0.670,-0.645
'0:10.244',0.610,-0.720
'0:10.247',0.540,-0.705
'0:10.250',0.465,-0.575
'0:10.253',0.315,-0.465
'0:10.256',0.105,-0.420
'0:10.258',-0.175,-0.465
'0:10.261',-0.445,-0.525
'0:10.264',-0.680,-0.575
'0:10.267',-0.850,-0.610
'0:10.269',-0.940,-0.665
'0:10.272',-0.940,-0.725
'0:10.275',-0.890,-0.755
'0:10.278',-0.860,-0.740
'0:10.281',-0.830,-0.655
'0:10.283',-0.850,-0.615
'0:10.286',-0.900,-0.610
'0:10.289',-0.950,-0.645
'0:10.292',-0.995,-0.715
'0:10.294',-1.005,-0.740
'0:10.297',-1.015,-0.685
'0:10.300',-1.035,-0.615
'0:10.303',-1.065,-0.585
'0:10.306',-1.065,-0.625
'0:10.308',-1.070,-0.675
'0:10.311',-1.075,-0.745
'0:10.314',-1.065,-0.735
'0:10.317',-1.075,-0.685
'0:10.319',-1.080,-0.620
'0:10.322',-1.085,-0.595
'0:10.325',-1.100,-0.650
'0:10.328',-1.050,-0.695
'0:10.331',-1.045,-0.705
'0:10.333',-1.020,-0.655
'0:10.336',-1.025,-0.590
'0:10.339',-1.035,-0.555
'0:10.342',-1.055,-0.600
'0:10.344',-1.075,-0.675
'0:10.347',-1.080,-0.720
'0:10.350',-1.055,-0.700
'0:10.353',-1.060,-0.640
'0:10.356',-1.070,-0.585
'0:10.358',-1.075,-0.590
'0:10.361',-1.060,-0.620
'0:10.364',-1.040,-0.665
'0:10.367',-1.020,-0.640
'0:10.369',-1.035,-0.580
'0:10.372',-1.030,-0.540
'0:10.375',-1.050,-0.545
'0:10.378',-1.060,-0.580
'0:10.381',-1.065,-0.645
'0:10.383',-1.040,-0.665
'0:10.386',-1.030,-0.605
'0:10.389',-1.040,-0.545
'0:10.392',-1.045,-0.490
'0:10.394',-1.030,-0.510
'0:10.397',-1.045,-0.560
'0:10.400',-1.010,-0.580
'0:10.403',-0.990,-0.575
'0:10.406',-0.985,-0.505
'0:10.408',-1.005,-0.460
'0:10.411',-1.025,-0.470
'0:10.414',-1.035,-0.535
'0:10.417',-1.035,-0.600
'0:10.419',-1.030,-0.600
'0:10.422',-1.015,-0.535
'0:10.425',-1.010,-0.460
'0:10.428',-1.015,-0.425
'0:10.431',-1.010,-0.435
'0:10.433',-0.975,-0.490
'0:10.436',-0.975,-0.540
'0:10.439',-0.955,-0.535
'0:10.442',-0.970,-0.470
'0:10.444',-0.980,-0.430
'0:10.447',-0.985,-0.435
'0:10.450',-0.980,-0.485
'0:10.453',-0.960,-0.530
'0:10.456',-0.965,-0.510
'0:10.458',-0.955,-0.475
'0:10.461',-0.980,-0.435
'0:10.464',-0.965,-0.455
'0:10.467',-0.945,-0.500
'0:10.469',-0.930,-0.510
'0:10.472',-0.920,-0.485
'0:10.475',-0.940,-0.450
'0:10.478',-0.955,-0.465
'0:10.481',-0.955,-0.520
'0:10.483',-0.950,-0.570
'0:10.486',-0.940,-0.565
'0:10.489',-0.930,-0.535
'0:10.492',-0.925,-0.465
'0:10.494',-0.925,-0.475
'0:10.497',-0.920,-0.530
'0:10.500',-0.895,-0.575
'0:10.503',-0.885,-0.555
'0:10.506',-0.910,-0.530
'0:10.508',-0.910,-0.510
'0:10.511',-0.920,-0.535
'0:10.514',-0.950,-0.605
'0:10.517',-0.925,-0.655
'0:10.519',-0.930,-0.645
'0:10.522',-0.910,-0.600
'0:10.525',-0.930,-0.535
'0:10.528',-0.945,-0.545
'0:10.531',-0.930,-0.605
'0:10.533',-0.910,-0.635
'0:10.536',-0.900,-0.645
'0:10.539',-0.905,-0.590
'0:10.542',-0.935,-0.565
'0:10.544',-0.935,-0.575
'0:10.547',-0.955,-0.635
'0:10.550',-0.975,-0.700
'0:10.553',-0.955,-0.695
'0:10.556',-0.955,-0.650
'0:10.558',-0.960,-0.585
'0:10.561',-0.965,-0.570
'0:10.564',-0.965,-0.620
'0:10.567',-0.940,-0.660
'0:10.569',-0.915,-0.670
'0:10.572',-0.925,-0.620
'0:10.575',-0.940,-0.590
'0:10.578',-0.960,-0.580
'0:10.581',-0.975,-0.635
'0:10.583',-0.980,-0.695
'0:10.586',-0.960,-0.705
'0:10.589',-0.955,-0.695
'0:10.592',-0.970,-0.610
'0:10.594',-0.975,-0.575
'0:10.597',-0.980,-0.600
'0:10.600',-0.960,-0.655
'0:10.603',-0.945,-0.685
'0:10.606',-0.950,-0.665
'0:10.608',-0.950,-0.605
'0:10.611',-0.980,-0.590
'0:10.614',-0.990,-0.625
'0:10.617',-1.000,-0.700
'0:10.619',-1.010,-0.740
'0:10.622',-1.015,-0.695
'0:10.625',-1.015,-0.635
'0:10.628',-1.025,-0.605
'0:10.631',-1.030,-0.630
'0:10.633',-1.025,-0.685
'0:10.636',-1.015,-0.700
'0:10.639',-1.015,-0.685
'0:10.642',-1.010,-0.630
'0:10.644',-1.040,-0.620
'0:10.647',-1.060,-0.650
'0:10.650',-1.060,-0.700
'0:10.653',-1.055,-0.740
'0:10.656',-1.035,-0.700
'0:10.658',-1.055,-0.655
'0:10.661',-1.055,-0.615
'0:10.664',-1.060,-0.635
'0:10.667',-1.045,-0.670
'0:10.669',-1.025,-0.690
'0:10.672',-1.025,-0.660
'0:10.675',-1.035,-0.635
'0:10.678',-1.055,-0.640
'0:10.681',-1.055,-0.700
'0:10.683',-1.045,-0.720
'0:10.686',-1.045,-0.690
'0:10.689',-1.045,-0.665
'0:10.692',-1.035,-0.655
'0:10.694',-1.040,-0.675
'0:10.697',-1.005,-0.705
'0:10.700',-1.000,-0.675
'0:10.703',-1.000,-0.635
'0:10.706',-0.995,-0.605
'0:10.708',-1.020,-0.620
'0:10.711',-1.010,-0.705
'0:10.714',-1.000,-0.740
'0:10.717',-0.985,-0.745
'0:10.719',-0.985,-0.690
'0:10.722',-0.990,-0.630
'0:10.725',-0.995,-0.625
'0:10.728',-1.000,-0.660
'0:10.731',-0.970,-0.700
'0:10.733',-0.940,-0.695
'0:10.736',-0.925,-0.660
'0:10.739',-0.945,-0.610
'0:10.742',-0.945,-0.600
'0:10.744',-0.940,-0.635
'0:10.747',-0.935,-0.700
'0:10.750',-0.895,-0.720
'0:10.753',-0.870,-0.670
'0:10.756',-0.865,-0.615
'0:10.758',-0.845,-0.615
'0:10.761',-0.830,-0.615
'0:10.764',-0.790,-0.650
'0:10.767',-0.770,-0.635
'0:10.769',-0.750,-0.570
'0:10.772',-0.750,-0.510
'0:10.775',-0.770,-0.510
'0:10.778',-0.780,-0.565
'0:10.781',-0.785,-0.640
'0:10.783',-0.780,-0.655
'0:10.786',-0.785,-0.625
'0:10.789',-0.800,-0.560
'0:10.792',-0.815,-0.535
'0:10.794',-0.825,-0.565
'0:10.797',-0.815,-0.605
'0:10.800',-0.800,-0.620
'0:10.803',-0.790,-0.605
'0:10.806',-0.810,-0.550
'0:10.808',-0.825,-0.545
'0:10.811',-0.880,-0.615
'0:10.814',-0.890,-0.670
'0:10.817',-0.895,-0.725
'0:10.819',-0.910,-0.705
'0:10.822',-0.950,-0.665
'0:10.825',-0.965,-0.625
'0:10.828',-0.975,-0.670
'0:10.831',-0.965,-0.715
'0:10.833',-0.965,-0.735
'0:10.836',-0.955,-0.705
'0:10.839',-0.965,-0.640
'0:10.842',-0.985,-0.585
'0:10.844',-1.005,-0.585
'0:10.847',-1.010,-0.650
'0:10.850',-1.020,-0.715
'0:10.853',-1.015,-0.725
'0:10.856',-1.020,-0.685
'0:10.858',-1.015,-0.620
'0:10.861',-1.030,-0.600
'0:10.864',-1.010,-0.625
'0:10.867',-0.995,-0.680
'0:10.869',-0.990,-0.680
'0:10.872',-0.990,-0.645
'0:10.875',-1.015,-0.625
'0:10.878',-1.050,-0.645
'0:10.881',-1.095,-0.715
'0:10.883',-1.125,-0.735
'0:10.886',-1.160,-0.720
'0:10.889',-1.210,-0.640
'0:10.892',-1.210,-0.625
'0:10.894',-1.150,-0.620
'0:10.897',-1.045,-0.585
'0:10.900',-0.865,-0.525
'0:10.903',-0.665,-0.415
'0:10.906',-0.465,-0.305
'0:10.908',-0.280,-0.255
'0:10.911',-0.080,-0.280
'0:10.914',0.100,-0.300
'0:10.917',0.270,-0.300
'0:10.919',0.410,-0.255
'0:10.922',0.520,-0.220
'0:10.925',0.600,-0.275
'0:10.928',0.655,-0.405
'0:10.931',0.695,-0.565
'0:10.933',0.690,-0.640
'0:10.936',0.640,-0.640
'0:10.939',0.570,-0.565
'0:10.942',0.455,-0.495
'0:10.944',0.285,-0.480
'0:10.947',0.040,-0.480
'0:10.950',-0.245,-0.505
'0:10.953',-0.530,-0.530
'0:10.956',-0.770,-0.585
'0:10.958',-0.925,-0.660
'0:10.961',-0.965,-0.730
'0:10.964',-0.955,-0.770
'0:10.967',-0.890,-0.730
'0:10.969',-0.845,-0.645
'0:10.972',-0.845,-0.590
'0:10.975',-0.860,-0.575
'0:10.978',-0.940,-0.635
'0:10.981',-0.975,-0.705
'0:10.983',-1.015,-0.695
'0:10.986',-1.045,-0.665
'0:10.989',-1.100,-0.635
'0:10.992',-1.105,-0.625
'0:10.994',-1.105,-0.670
'0:10.997',-1.085,-0.700
'0:11.000',-1.055,-0.665
'0:11.003',-1.065,-0.600
'0:11.006',-1.070,-0.575
'0:11.008',-1.095,-0.605
'0:11.011',-1.090,-0.645
'0:11.014',-1.080,-0.685
'0:11.017',-1.075,-0.650
'0:11.019',-1.080,-0.610
'0:11.022',-1.090,-0.570
'0:11.025',-1.100,-0.600
'0:11.028',-1.080,-0.630
'0:11.031',-1.055,-0.650
'0:11.033',-1.060,-0.610
'0:11.036',-1.055,-0.550
'0:11.039',-1.075,-0.520
'0:11.042',-1.085,-0.540
'0:11.044',-1.085,-0.625
'0:11.047',-1.075,-0.645
'0:11.050',-1.065,-0.640
'0:11.053',-1.080,-0.580
'0:11.056',-1.090,-0.560
'0:11.058',-1.095,-0.560
'0:11.061',-1.075,-0.605
'0:11.064',-1.060,-0.615
'0:11.067',-1.035,-0.575
'0:11.069',-1.030,-0.500
'0:11.072',-1.045,-0.485
'0:11.075',-1.045,-0.525
'0:11.078',-1.045,-0.575
'0:11.081',-1.035,-0.590
'0:11.083',-1.030,-0.535
'0:11.086',-1.020,-0.500
'0:11.089',-1.070,-0.505
'0:11.092',-1.050,-0.560
'0:11.094',-1.035,-0.550
'0:11.097',-1.015,-0.525
'0:11.100',-1.010,-0.460
'0:11.103',-1.020,-0.425
'0:11.106',-1.030,-0.440
'0:11.108',-1.015,-0.490
'0:11.111',-1.020,-0.550
'0:11.114',-1.000,-0.545
'0:11.117',-0.995,-0.490
'0:11.119',-1.005,-0.435
'0:11.122',-1.030,-0.430
'0:11.125',-1.020,-0.465
'0:11.128',-1.005,-0.515
'0:11.131',-0.960,-0.530
'0:11.133',-0.970,-0.470
'0:11.136',-0.955,-0.410
'0:11.139',-0.970,-0.410
'0:11.142',-0.980,-0.455
'0:11.144',-0.985,-0.525
'0:11.147',-0.985,-0.555
'0:11.150',-0.970,-0.550
'0:11.153',-0.965,-0.490
'0:11.156',-0.995,-0.435
'0:11.158',-0.990,-0.450
'0:11.161',-0.975,-0.500
'0:11.164',-0.950,-0.535
'0:11.167',-0.945,-0.540
'0:11.169',-0.940,-0.490
'0:11.172',-0.950,-0.450
'0:11.175',-0.955,-0.455
'0:11.178',-0.965,-0.515
'0:11.181',-0.950,-0.590
'0:11.183',-0.945,-0.615
'0:11.186',-0.940,-0.570
'0:11.189',-0.935,-0.530
'0:11.192',-0.965,-0.515
'0:11.194',-0.965,-0.545
'0:11.197',-0.940,-0.590
'0:11.200',-0.915,-0.610
'0:11.203',-0.910,-0.575
'0:11.206',-0.920,-0.535
'0:11.208',-0.965,-0.520
'0:11.211',-0.960,-0.580
'0:11.214',-0.970,-0.650
'0:11.217',-0.955,-0.680
'0:11.219',-0.945,-0.645
'0:11.222',-0.960,-0.590
'0:11.225',-0.965,-0.560
'0:11.228',-0.985,-0.605
'0:11.231',-0.975,-0.655
'0:11.233',-0.950,-0.655
'0:11.236',-0.930,-0.625
'0:11.239',-0.940,-0.570
'0:11.242',-0.955,-0.560
'0:11.244',-0.965,-0.595
'0:11.247',-0.970,-0.670
'0:11.250',-0.955,-0.720
'0:11.253',-0.945,-0.660
'0:11.256',-0.960,-0.615
'0:11.258',-0.970,-0.585
'0:11.261',-0.980,-0.605
'0:11.264',-0.975,-0.665
'0:11.267',-0.950,-0.675
'0:11.269',-0.940,-0.630
'0:11.272',-0.955,-0.600
'0:11.275',-0.980,-0.590
'0:11.278',-0.990,-0.630
'0:11.281',-0.995,-0.690
'0:11.283',-1.000,-0.695
'0:11.286',-0.990,-0.665
'0:11.289',-0.995,-0.635
'0:11.292',-1.015,-0.625
'0:11.294',-1.020,-0.650
'0:11.297',-1.005,-0.670
'0:11.300',-0.995,-0.645
'0:11.303',-0.990,-0.600
'0:11.306',-1.025,-0.610
'0:11.308',-1.035,-0.645
'0:11.311',-1.015,-0.710
'0:11.314',-1.030,-0.700
'0:11.317',-1.045,-0.680
'0:11.319',-1.055,-0.630
'0:11.322',-1.075,-0.630
'0:11.325',-1.085,-0.680
'0:11.328',-1.080,-0.710
'0:11.331',-1.060,-0.690
'0:11.333',-1.040,-0.640
'0:11.336',-1.040,-0.605
'0:11.339',-1.060,-0.605
'0:11.342',-1.055,-0.640
'0:11.344',-1.075,-0.715
'0:11.347',-1.060,-0.745
'0:11.350',-1.060,-0.700
'0:11.353',-1.055,-0.675
'0:11.356',-1.065,-0.650
'0:11.358',-1.080,-0.660
'0:11.361',-1.060,-0.710
'0:11.364',-1.045,-0.710
'0:11.367',-1.005,-0.660
'0:11.369',-1.000,-0.605
'0:11.372',-1.025,-0.600
'0:11.375',-1.020,-0.650
'0:11.378',-1.030,-0.710
'0:11.381',-1.040,-0.725
'0:11.383',-1.040,-0.700
'0:11.386',-1.030,-0.620
'0:11.389',-1.045,-0.610
'0:11.392',-1.035,-0.640
'0:11.394',-1.015,-0.685
'0:11.397',-0.990,-0.710
'0:11.400',-0.975,-0.670
'0:11.403',-0.975,-0.610
'0:11.406',-0.980,-0.575
'0:11.408',-0.995,-0.600
'0:11.411',-1.000,-0.660
'0:11.414',-1.000,-0.700
'0:11.417',-0.980,-0.700
'0:11.419',-0.980,-0.655
'0:11.422',-0.985,-0.610
'0:11.425',-0.990,-0.625
'0:11.428',-0.960,-0.660
'0:11.431',-0.945,-0.670
'0:11.433',-0.925,-0.650
'0:11.436',-0.890,-0.590
'0:11.439',-0.885,-0.585
'0:11.442',-0.880,-0.605
'0:11.444',-0.845,-0.660
'0:11.447',-0.830,-0.705
'0:11.450',-0.805,-0.695
'0:11.453',-0.815,-0.625
'0:11.456',-0.810,-0.550
'0:11.458',-0.805,-0.550
'0:11.461',-0.790,-0.575
'0:11.464',-0.765,-0.595
'0:11.467',-0.755,-0.575
'0:11.469',-0.750,-0.530
'0:11.472',-0.765,-0.505
'0:11.475',-0.800,-0.540
'0:11.478',-0.815,-0.620
'0:11.481',-0.830,-0.655
'0:11.483',-0.840,-0.620
'0:11.486',-0.845,-0.575
'0:11.489',-0.870,-0.565
'0:11.492',-0.870,-0.600
'0:11.494',-0.850,-0.630
'0:11.497',-0.845,-0.635
'0:11.500',-0.850,-0.600
'0:11.503',-0.875,-0.560
'0:11.506',-0.915,-0.585
'0:11.508',-0.940,-0.645
'0:11.511',-0.955,-0.720
'0:11.514',-0.965,-0.715
'0:11.517',-0.980,-0.675
'0:11.519',-0.990,-0.630
'0:11.522',-1.015,-0.605
'0:11.525',-1.015,-0.660
'0:11.528',-1.015,-0.700
'0:11.531',-1.010,-0.710
'0:11.533',-1.005,-0.650
'0:11.536',-1.015,-0.600
'0:11.539',-1.035,-0.580
'0:11.542',-1.045,-0.620
'0:11.544',-1.050,-0.685
'0:11.547',-1.045,-0.730
'0:11.550',-1.035,-0.705
'0:11.553',-1.045,-0.665
'0:11.556',-1.065,-0.625
'0:11.558',-1.075,-0.670
'0:11.561',-1.065,-0.705
'0:11.564',-1.060,-0.700
'0:11.567',-1.080,-0.660
'0:11.569',-1.115,-0.620
'0:11.572',-1.170,-0.620
'0:11.575',-1.230,-0.655
'0:11.578',-1.240,-0.715
'0:11.581',-1.220,-0.725
'0:11.583',-1.160,-0.630
'0:11.586',-1.035,-0.520
'0:11.589',-0.905,-0.425
'0:11.592',-0.715,-0.400
'0:11.594',-0.505,-0.405
'0:11.597',-0.315,-0.370
'0:11.600',-0.135,-0.285
'0:11.603',0.055,-0.200
'0:11.606',0.190,-0.145
'0:11.608',0.340,-0.185
'0:11.611',0.475,-0.300
'0:11.614',0.585,-0.405
'0:11.617',0.640,-0.480
'0:11.619',0.660,-0.550
'0:11.622',0.615,-0.615
'0:11.625',0.555,-0.660
'0:11.628',0.500,-0.670
'0:11.631',0.395,-0.585
'0:11.633',0.215,-0.450
'0:11.636',-0.035,-0.365
'0:11.639',-0.340,-0.380
'0:11.642',-0.630,-0.500
'0:11.644',-0.825,-0.670
'0:11.647',-0.925,-0.755
'0:11.650',-0.955,-0.760
'0:11.653',-0.950,-0.715
'0:11.656',-0.930,-0.660
'0:11.658',-0.905,-0.660
'0:11.661',-0.870,-0.685
'0:11.664',-0.880,-0.665
'0:11.667',-0.930,-0.630
'0:11.669',-0.985,-0.590
'0:11.672',-1.055,-0.610
'0:11.675',-1.085,-0.660
'0:11.678',-1.100,-0.715
'0:11.681',-1.100,-0.735
'0:11.683',-1.110,-0.690
'0:11.686',-1.115,-0.655
'0:11.689',-1.135,-0.650
'0:11.692',-1.120,-0.675
'0:11.694',-1.090,-0.670
'0:11.697',-1.085,-0.625
'0:11.700',-1.080,-0.570
'0:11.703',-1.065,-0.540
'0:11.706',-1.080,-0.565
'0:11.708',-1.080,-0.660
'0:11.711',-1.075,-0.665
'0:11.714',-1.070,-0.655
'0:11.717',-1.100,-0.590
'0:11.719',-1.105,-0.590
'0:11.722',-1.115,-0.615
'0:11.725',-1.105,-0.660
'0:11.728',-1.085,-0.670
'0:11.731',-1.055,-0.610
'0:11.733',-1.065,-0.545
'0:11.736',-1.065,-0.500
'0:11.739',-1.075,-0.535
'0:11.742',-1.085,-0.595
'0:11.744',-1.070,-0.635
'0:11.747',-1.055,-0.610
'0:11.750',-1.055,-0.565
'0:11.753',-1.070,-0.520
'0:11.756',-1.085,-0.535
'0:11.758',-1.070,-0.585
'0:11.761',-1.065,-0.605
'0:11.764',-1.055,-0.575
'0:11.767',-1.050,-0.520
'0:11.769',-1.050,-0.465
'0:11.772',-1.060,-0.460
'0:11.775',-1.070,-0.525
'0:11.778',-1.050,-0.585
'0:11.781',-1.045,-0.565
'0:11.783',-1.060,-0.515
'0:11.786',-1.060,-0.455
'0:11.789',-1.070,-0.455
'0:11.792',-1.075,-0.490
'0:11.794',-1.035,-0.520
'0:11.797',-1.015,-0.525
'0:11.800',-0.985,-0.440
'0:11.803',-0.995,-0.405
'0:11.806',-1.020,-0.400
'0:11.808',-1.020,-0.440
'0:11.811',-1.025,-0.505
'0:11.814',-1.015,-0.520
'0:11.817',-0.990,-0.480
'0:11.819',-0.990,-0.430
'0:11.822',-1.000,-0.410
'0:11.825',-1.005,-0.435
'0:11.828',-0.990,-0.480
'0:11.831',-0.970,-0.510
'0:11.833',-0.955,-0.465
'0:11.836',-0.950,-0.425
'0:11.839',-0.960,-0.395
'0:11.842',-0.960,-0.455
'0:11.844',-0.975,-0.540
'0:11.847',-0.975,-0.565
'0:11.850',-0.965,-0.550
'0:11.853',-0.970,-0.480
'0:11.856',-0.980,-0.460
'0:11.858',-0.980,-0.465
'0:11.861',-0.955,-0.530
'0:11.864',-0.940,-0.560
'0:11.867',-0.910,-0.525
'0:11.869',-0.900,-0.480
'0:11.872',-0.910,-0.430
'0:11.875',-0.930,-0.470
'0:11.878',-0.935,-0.550
'0:11.881',-0.930,-0.595
'0:11.883',-0.935,-0.610
'0:11.886',-0.935,-0.560
'0:11.889',-0.955,-0.520
'0:11.892',-0.960,-0.535
'0:11.894',-0.940,-0.590
'0:11.897',-0.925,-0.615
'0:11.900',-0.920,-0.575
'0:11.903',-0.905,-0.525
'0:11.906',-0.930,-0.515
'0:11.908',-0.935,-0.545
'0:11.911',-0.945,-0.620
'0:11.914',-0.935,-0.645
'0:11.917',-0.935,-0.635
'0:11.919',-0.935,-0.595
'0:11.922',-0.955,-0.565
'0:11.925',-0.960,-0.600
'0:11.928',-0.950,-0.660
'0:11.931',-0.940,-0.685
'0:11.933',-0.925,-0.640
'0:11.936',-0.930,-0.580
'0:11.939',-0.930,-0.550
'0:11.942',-0.965,-0.550
'0:11.944',-0.950,-0.620
'0:11.947',-0.960,-0.695
'0:11.950',-0.940,-0.710
'0:11.953',-0.945,-0.645
'0:11.956',-0.970,-0.595
'0:11.958',-0.955,-0.585
'0:11.961',-0.970,-0.645
'0:11.964',-0.955,-0.670
'0:11.967',-0.945,-0.650
'0:11.969',-0.950,-0.600
'0:11.972',-0.955,-0.575
'0:11.975',-0.970,-0.590
'0:11.978',-0.975,-0.645
'0:11.981',-0.980,-0.685
'0:11.983',-0.970,-0.660
'0:11.986',-0.995,-0.625
'0:11.989',-1.020,-0.590
'0:11.992',-1.025,-0.580
'0:11.994',-1.010,-0.630
'0:11.997',-0.990,-0.660
'0:12.000',-0.985,-0.630
'0:12.003',-0.965,-0.575
'0:12.006',-0.995,-0.550
'0:12.008',-1.025,-0.560
'0:12.011',-1.030,-0.635
'0:12.014',-1.035,-0.685
'0:12.017',-1.035,-0.670
'0:12.019',-1.035,-0.625
'0:12.022',-1.070,-0.600
'0:12.025',-1.075,-0.605
'0:12.028',-1.070,-0.645
'0:12.031',-1.045,-0.660
'0:12.033',-1.030,-0.615
'0:12.036',-1.030,-0.585
'0:12.039',-1.035,-0.575
'0:12.042',-1.035,-0.615
'0:12.044',-1.025,-0.670
'0:12.047',-1.040,-0.680
'0:12.050',-1.030,-0.645
'0:12.053',-1.035,-0.600
'0:12.056',-1.045,-0.580
'0:12.058',-1.035,-0.620
'0:12.061',-1.025,-0.665
'0:12.064',-1.005,-0.665
'0:12.067',-0.985,-0.605
'0:12.069',-0.990,-0.560
'0:12.072',-0.995,-0.555
'0:12.075',-1.005,-0.605
'0:12.078',-1.000,-0.655
'0:12.081',-0.980,-0.645
'0:12.083',-0.985,-0.605
'0:12.086',-1.010,-0.590
'0:12.089',-1.005,-0.600
'0:12.092',-0.975,-0.635
'0:12.094',-0.945,-0.625
'0:12.097',-0.925,-0.605
'0:12.100',-0.925,-0.550
'0:12.103',-0.920,-0.565
'0:12.106',-0.910,-0.595
'0:12.108',-0.915,-0.620
'0:12.111',-0.905,-0.630
'0:12.114',-0.895,-0.570
'0:12.117',-0.885,-0.575
'0:12.119',-0.880,-0.610
'0:12.122',-0.860,-0.640
'0:12.125',-0.840,-0.645
'0:12.128',-0.800,-0.575
'0:12.131',-0.775,-0.530
'0:12.133',-0.760,-0.495
'0:12.136',-0.765,-0.510
'0:12.139',-0.735,-0.560
'0:12.142',-0.740,-0.555
'0:12.144',-0.725,-0.535
'0:12.147',-0.725,-0.495
'0:12.150',-0.775,-0.495
'0:12.153',-0.780,-0.545
'0:12.156',-0.785,-0.595
'0:12.158',-0.775,-0.580
'0:12.161',-0.780,-0.540
'0:12.164',-0.785,-0.495
'0:12.167',-0.795,-0.465
'0:12.169',-0.780,-0.505
'0:12.172',-0.785,-0.550
'0:12.175',-0.780,-0.560
'0:12.178',-0.795,-0.545
'0:12.181',-0.830,-0.520
'0:12.183',-0.875,-0.525
'0:12.186',-0.905,-0.590
'0:12.189',-0.945,-0.660
'0:12.192',-0.925,-0.690
'0:12.194',-0.935,-0.635
'0:12.197',-0.940,-0.560
'0:12.200',-0.960,-0.530
'0:12.203',-0.965,-0.545
'0:12.206',-0.950,-0.600
'0:12.208',-0.940,-0.615
'0:12.211',-0.945,-0.600
'0:12.214',-0.960,-0.570
'0:12.217',-0.995,-0.545
'0:12.219',-1.005,-0.580
'0:12.222',-1.015,-0.630
'0:12.225',-0.995,-0.640
'0:12.228',-1.000,-0.590
'0:12.231',-0.980,-0.570
'0:12.233',-0.985,-0.540
'0:12.236',-0.990,-0.565
'0:12.239',-0.980,-0.610
'0:12.242',-0.985,-0.625
'0:12.244',-1.010,-0.585
'0:12.247',-1.050,-0.555
'0:12.250',-1.105,-0.565
'0:12.253',-1.165,-0.635
'0:12.256',-1.210,-0.690
'0:12.258',-1.200,-0.675
'0:12.261',-1.160,-0.590
'0:12.264',-1.085,-0.485
'0:12.267',-0.995,-0.395
'0:12.269',-0.835,-0.365
'0:12.272',-0.625,-0.340
'0:12.275',-0.415,-0.305
'0:12.278',-0.215,-0.220
'0:12.281',-0.045,-0.135
'0:12.283',0.135,-0.115
'0:12.286',0.310,-0.160
'0:12.289',0.470,-0.230
'0:12.292',0.605,-0.255
'0:12.294',0.710,-0.305
'0:12.297',0.755,-0.390
'0:12.300',0.760,-0.510
'0:12.303',0.735,-0.590
'0:12.306',0.685,-0.600
'0:12.308',0.575,-0.490
'0:12.311',0.390,-0.370
'0:12.314',0.115,-0.305
'0:12.317',-0.205,-0.365
'0:12.319',-0.495,-0.480
'0:12.322',-0.715,-0.575
'0:12.325',-0.860,-0.585
'0:12.328',-0.915,-0.580
'0:12.331',-0.890,-0.580
'0:12.333',-0.835,-0.585
'0:12.336',-0.775,-0.605
'0:12.339',-0.775,-0.585
'0:12.342',-0.785,-0.540
'0:12.344',-0.840,-0.505
'0:12.347',-0.930,-0.515
'0:12.350',-0.985,-0.575
'0:12.353',-1.030,-0.625
'0:12.356',-1.040,-0.620
'0:12.358',-1.045,-0.570
'0:12.361',-1.050,-0.500
'0:12.364',-1.050,-0.490
'0:12.367',-1.055,-0.515
'0:12.369',-1.040,-0.565
'0:12.372',-1.025,-0.575
'0:12.375',-1.025,-0.530
'0:12.378',-1.035,-0.500
'0:12.381',-1.040,-0.490
'0:12.383',-1.030,-0.530
'0:12.386',-1.035,-0.575
'0:12.389',-1.025,-0.585
'0:12.392',-1.010,-0.545
'0:12.394',-1.030,-0.470
'0:12.397',-1.020,-0.445
'0:12.400',-1.025,-0.465
'0:12.403',-1.030,-0.510
'0:12.406',-1.000,-0.550
'0:12.408',-1.000,-0.510
'0:12.411',-1.005,-0.460
'0:12.414',-1.020,-0.450
'0:12.417',-1.055,-0.495
'0:12.419',-1.040,-0.550
'0:12.422',-1.030,-0.565
'0:12.425',-1.005,-0.530
'0:12.428',-1.005,-0.460
'0:12.431',-1.000,-0.410
'0:12.433',-1.020,-0.410
'0:12.436',-1.000,-0.465
'0:12.439',-0.985,-0.505
'0:12.442',-0.965,-0.475
'0:12.444',-0.990,-0.435
'0:12.447',-1.015,-0.400
'0:12.450',-1.020,-0.435
'0:12.453',-1.010,-0.475
'0:12.456',-0.995,-0.500
'0:12.458',-0.980,-0.500
'0:12.461',-0.980,-0.410
'0:12.464',-0.990,-0.360
'0:12.467',-0.995,-0.340
'0:12.469',-0.990,-0.390
'0:12.472',-0.965,-0.435
'0:12.475',-0.945,-0.450
'0:12.478',-0.945,-0.415
'0:12.481',-0.960,-0.365
'0:12.483',-0.985,-0.370
'0:12.486',-0.975,-0.400
'0:12.489',-0.975,-0.450
'0:12.492',-0.945,-0.445
'0:12.494',-0.955,-0.410
'0:12.497',-0.945,-0.340
'0:12.500',-0.945,-0.325
'0:12.503',-0.925,-0.365
'0:12.506',-0.920,-0.390
'0:12.508',-0.900,-0.400
'0:12.511',-0.910,-0.370
'0:12.514',-0.935,-0.345
'0:12.517',-0.940,-0.380
'0:12.519',-0.955,-0.425
'0:12.522',-0.930,-0.455
'0:12.525',-0.915,-0.460
'0:12.528',-0.905,-0.390
'0:12.531',-0.905,-0.360
'0:12.533',-0.925,-0.345
'0:12.536',-0.910,-0.410
'0:12.539',-0.895,-0.465
'0:12.542',-0.865,-0.480
'0:12.544',-0.855,-0.440
'0:12.547',-0.880,-0.410
'0:12.550',-0.900,-0.385
'0:12.553',-0.920,-0.465
'0:12.556',-0.925,-0.520
'0:12.558',-0.895,-0.550
'0:12.561',-0.885,-0.495
'0:12.564',-0.865,-0.435
'0:12.567',-0.870,-0.400
'0:12.569',-0.875,-0.435
'0:12.572',-0.860,-0.500
'0:12.575',-0.870,-0.525
'0:12.578',-0.855,-0.530
'0:12.581',-0.870,-0.490
'0:12.583',-0.885,-0.470
'0:12.586',-0.890,-0.505
'0:12.589',-0.910,-0.575
'0:12.592',-0.905,-0.580
'0:12.594',-0.895,-0.540
'0:12.597',-0.890,-0.480
'0:12.600',-0.890,-0.455
'0:12.603',-0.895,-0.465
'0:12.606',-0.885,-0.545
'0:12.608',-0.885,-0.585
'0:12.611',-0.870,-0.575
'0:12.614',-0.875,-0.530
'0:12.617',-0.890,-0.495
'0:12.619',-0.920,-0.510
'0:12.622',-0.915,-0.570
'0:12.625',-0.895,-0.575
'0:12.628',-0.895,-0.570
'0:12.631',-0.880,-0.500
'0:12.633',-0.880,-0.490
'0:12.636',-0.890,-0.490
'0:12.639',-0.880,-0.555
'0:12.642',-0.880,-0.585
'0:12.644',-0.900,-0.560
'0:12.647',-0.910,-0.530
'0:12.650',-0.935,-0.520
'0:12.653',-0.950,-0.550
'0:12.656',-0.945,-0.615
'0:12.658',-0.940,-0.620
'0:12.661',-0.940,-0.585
'0:12.664',-0.935,-0.535
'0:12.667',-0.940,-0.475
'0:12.669',-0.955,-0.475
'0:12.672',-0.960,-0.540
'0:12.675',-0.965,-0.615
'0:12.678',-0.945,-0.630
'0:12.681',-0.940,-0.595
'0:12.683',-0.965,-0.535
'0:12.686',-1.005,-0.535
'0:12.689',-1.010,-0.575
'0:12.692',-1.000,-0.625
'0:12.694',-0.995,-0.640
'0:12.697',-0.995,-0.600
'0:12.700',-0.975,-0.530
'0:12.703',-0.995,-0.520
'0:12.706',-1.010,-0.535
'0:12.708',-1.020,-0.590
'0:12.711',-1.015,-0.630
'0:12.714',-1.010,-0.600
'0:12.717',-1.035,-0.575
'0:12.719',-1.025,-0.550
'0:12.722',-1.025,-0.585
'0:12.725',-1.025,-0.655
'0:12.728',-1.005,-0.650
'0:12.731',-0.990,-0.620
'0:12.733',-0.980,-0.530
'0:12.736',-0.985,-0.510
'0:12.739',-0.985,-0.565
'0:12.742',-0.985,-0.630
'0:12.744',-0.985,-0.680
'0:12.747',-0.970,-0.665
'0:12.750',-0.970,-0.605
'0:12.753',-0.980,-0.540
'0:12.756',-1.005,-0.555
'0:12.758',-1.000,-0.610
'0:12.761',-0.995,-0.650
'0:12.764',-0.960,-0.655
'0:12.767',-0.960,-0.615
'0:12.769',-0.940,-0.535
'0:12.772',-0.945,-0.515
'0:12.775',-0.965,-0.565
'0:12.778',-0.955,-0.610
'0:12.781',-0.950,-0.640
'0:12.783',-0.950,-0.605
'0:12.786',-0.945,-0.565
'0:12.789',-0.945,-0.540
'0:12.792',-0.950,-0.555
'0:12.794',-0.950,-0.625
'0:12.797',-0.910,-0.650
'0:12.800',-0.880,-0.615
'0:12.803',-0.895,-0.545
'0:12.806',-0.890,-0.490
'0:12.808',-0.890,-0.505
'0:12.811',-0.880,-0.585
'0:12.814',-0.860,-0.645
'0:12.817',-0.835,-0.655
'0:12.819',-0.810,-0.605
'0:12.822',-0.800,-0.545
'0:12.825',-0.805,-0.495
'0:12.828',-0.795,-0.510
'0:12.831',-0.765,-0.565
'0:12.833',-0.745,-0.575
'0:12.836',-0.715,-0.540
'0:12.839',-0.705,-0.480
'0:12.842',-0.710,-0.450
'0:12.844',-0.735,-0.470
'0:12.847',-0.735,-0.530
'0:12.850',-0.745,-0.595
'0:12.853',-0.750,-0.575
'0:12.856',-0.755,-0.520
'0:12.858',-0.770,-0.480
'0:12.861',-0.790,-0.470
'0:12.864',-0.780,-0.510
'0:12.867',-0.780,-0.570
'0:12.869',-0.785,-0.580
'0:12.872',-0.785,-0.545
'0:12.875',-0.790,-0.460
'0:12.878',-0.800,-0.455
'0:12.881',-0.840,-0.490
'0:12.883',-0.850,-0.600
'0:12.886',-0.875,-0.665
'0:12.889',-0.895,-0.680
'0:12.892',-0.900,-0.625
'0:12.894',-0.930,-0.585
'0:12.897',-0.935,-0.575
'0:12.900',-0.950,-0.605
'0:12.903',-0.935,-0.620
'0:12.906',-0.930,-0.630
'0:12.908',-0.940,-0.565
'0:12.911',-0.950,-0.545
'0:12.914',-0.975,-0.570
'0:12.917',-0.985,-0.625
'0:12.919',-0.975,-0.675
'0:12.922',-0.985,-0.650
'0:12.925',-0.990,-0.600
'0:12.928',-1.000,-0.570
'0:12.931',-0.995,-0.585
'0:12.933',-1.005,-0.625
'0:12.936',-0.975,-0.650
'0:12.939',-0.970,-0.630
'0:12.942',-0.975,-0.570
'0:12.944',-1.005,-0.550
'0:12.947',-1.025,-0.580
'0:12.950',-1.065,-0.645
'0:12.953',-1.105,-0.710
'0:12.956',-1.115,-0.735
'0:12.958',-1.145,-0.685
'0:12.961',-1.185,-0.605
'0:12.964',-1.210,-0.560
'0:12.967',-1.170,-0.565
'0:12.969',-1.075,-0.575
'0:12.972',-0.950,-0.545
'0:12.975',-0.790,-0.470
'0:12.978',-0.590,-0.375
'0:12.981',-0.400,-0.285
'0:12.983',-0.240,-0.265
'0:12.986',-0.060,-0.260
'0:12.989',0.125,-0.270
'0:12.992',0.300,-0.225
'0:12.994',0.465,-0.175
'0:12.997',0.585,-0.195
'0:13.000',0.670,-0.310
'0:13.003',0.715,-0.475
'0:13.006',0.730,-0.605
'0:13.008',0.710,-0.655
'0:13.011',0.640,-0.610
'0:13.014',0.530,-0.530
'0:13.017',0.430,-0.480
'0:13.019',0.265,-0.455
'0:13.022',0.045,-0.475
'0:13.025',-0.230,-0.470
'0:13.028',-0.490,-0.475
'0:13.031',-0.715,-0.500
'0:13.033',-0.855,-0.560
'0:13.036',-0.915,-0.660
'0:13.039',-0.900,-0.720
'0:13.042',-0.855,-0.720
'0:13.044',-0.820,-0.660
'0:13.047',-0.805,-0.575
'0:13.050',-0.845,-0.565
'0:13.053',-0.900,-0.600
'0:13.056',-0.950,-0.670
'0:13.058',-0.985,-0.690
'0:13.061',-0.985,-0.675
'0:13.064',-1.005,-0.585
'0:13.067',-1.035,-0.540
'0:13.069',-1.050,-0.555
'0:13.072',-1.035,-0.625
'0:13.075',-1.025,-0.680
'0:13.078',-1.020,-0.675
'0:13.081',-1.030,-0.635
'0:13.083',-1.055,-0.585
'0:13.086',-1.070,-0.555
'0:13.089',-1.065,-0.605
'0:13.092',-1.055,-0.650
'0:13.094',-1.035,-0.675
'0:13.097',-1.015,-0.615
'0:13.100',-1.015,-0.560
'0:13.103',-1.015,-0.510
'0:13.106',-1.040,-0.550
'0:13.108',-1.025,-0.600
'0:13.111',-1.030,-0.640
'0:13.114',-1.015,-0.620
'0:13.117',-1.015,-0.575
'0:13.119',-1.045,-0.550
'0:13.122',-1.045,-0.595
'0:13.125',-1.050,-0.635
'0:13.128',-1.045,-0.630
'0:13.131',-1.035,-0.570
'0:13.133',-1.020,-0.515
'0:13.136',-1.025,-0.485
'0:13.139',-1.025,-0.540
'0:13.142',-0.995,-0.595
'0:13.144',-1.005,-0.605
'0:13.147',-1.010,-0.550
'0:13.150',-1.030,-0.505
'0:13.153',-1.040,-0.505
'0:13.156',-1.055,-0.540
'0:13.158',-1.050,-0.585
'0:13.161',-1.020,-0.600
'0:13.164',-1.005,-0.555
'0:13.167',-1.005,-0.475
'0:13.169',-1.020,-0.420
'0:13.172',-1.005,-0.465
'0:13.175',-1.010,-0.515
'0:13.178',-0.990,-0.575
'0:13.181',-0.990,-0.550
'0:13.183',-0.985,-0.510
'0:13.186',-0.995,-0.450
'0:13.189',-1.015,-0.475
'0:13.192',-1.000,-0.515
'0:13.194',-0.990,-0.535
'0:13.197',-0.980,-0.500
'0:13.200',-0.965,-0.440
'0:13.203',-0.985,-0.405
'0:13.206',-0.980,-0.430
'0:13.208',-0.980,-0.475
'0:13.211',-0.940,-0.535
'0:13.214',-0.935,-0.520
'0:13.217',-0.965,-0.470
'0:13.219',-0.965,-0.430
'0:13.222',-0.975,-0.430
'0:13.225',-0.960,-0.505
'0:13.228',-0.940,-0.550
'0:13.231',-0.930,-0.555
'0:13.233',-0.905,-0.515
'0:13.236',-0.915,-0.425
'0:13.239',-0.915,-0.400
'0:13.242',-0.945,-0.440
'0:13.244',-0.930,-0.530
'0:13.247',-0.920,-0.575
'0:13.250',-0.905,-0.565
'0:13.253',-0.920,-0.515
'0:13.256',-0.920,-0.485
'0:13.258',-0.925,-0.485
'0:13.261',-0.920,-0.550
'0:13.264',-0.900,-0.595
'0:13.267',-0.885,-0.590
'0:13.269',-0.870,-0.520
'0:13.272',-0.875,-0.475
'0:13.275',-0.910,-0.500
'0:13.278',-0.920,-0.565
'0:13.281',-0.905,-0.640
'0:13.283',-0.890,-0.655
'0:13.286',-0.895,-0.620
'0:13.289',-0.910,-0.565
'0:13.292',-0.925,-0.565
'0:13.294',-0.930,-0.595
'0:13.297',-0.910,-0.640
'0:13.300',-0.900,-0.635
'0:13.303',-0.885,-0.595
'0:13.306',-0.895,-0.550
'0:13.308',-0.915,-0.545
'0:13.311',-0.930,-0.600
'0:13.314',-0.925,-0.680
'0:13.317',-0.925,-0.680
'0:13.319',-0.930,-0.635
'0:13.322',-0.950,-0.600
'0:13.325',-0.945,-0.620
'0:13.328',-0.950,-0.650
'0:13.331',-0.925,-0.660
'0:13.333',-0.920,-0.625
'0:13.336',-0.930,-0.565
'0:13.339',-0.920,-0.575
'0:13.342',-0.925,-0.615
'0:13.344',-0.930,-0.675
'0:13.347',-0.935,-0.690
'0:13.350',-0.960,-0.630
'0:13.353',-0.970,-0.605
